Time,PPG
0.0000,0.000000
0.0025,0.013181
0.0050,0.000000
0.0075,0.000866
0.0100,0.000000
0.0125,0.123492
0.0150,0.144113
0.0175,0.176660
0.0200,0.219336
0.0225,0.212757
0.0250,0.261242
0.0275,0.282052
0.0300,0.328222
0.0325,0.378278
0.0350,0.422397
0.0375,0.447870
0.0400,0.520920
0.0425,0.516522
0.0450,0.613194
0.0475,0.645875
0.0500,0.665682
0.0525,0.735502
0.0550,0.768911
0.0575,0.826427
0.0600,0.877932
0.0625,0.932229
0.0650,0.928038
0.0675,0.952322
0.0700,0.961622
0.0725,0.979412
0.0750,0.990087
0.0775,0.969083
0.0800,1.026409
0.0825,1.004442
0.0850,0.969433
0.0875,0.972294
0.0900,0.950261
0.0925,0.879711
0.0950,0.874014
0.0975,0.831002
0.1000,0.797143
0.1025,0.724945
0.1050,0.700855
0.1075,0.650895
0.1100,0.585555
0.1125,0.549587
0.1150,0.489185
0.1175,0.470674
0.1200,0.413941
0.1225,0.333697
0.1250,0.301238
0.1275,0.232659
0.1300,0.233834
0.1325,0.166540
0.1350,0.156883
0.1375,0.139234
0.1400,0.106542
0.1425,0.082373
0.1450,0.085435
0.1475,0.083397
0.1500,0.078833
0.1525,0.058901
0.1550,0.093557
0.1575,0.129294
0.1600,0.113140
0.1625,0.155455
0.1650,0.167896
0.1675,0.181236
0.1700,0.227400
0.1725,0.237651
0.1750,0.245679
0.1775,0.255780
0.1800,0.256255
0.1825,0.255407
0.1850,0.274966
0.1875,0.315404
0.1900,0.273009
0.1925,0.279312
0.1950,0.300634
0.1975,0.295776
0.2000,0.243675
0.2025,0.248133
0.2050,0.230400
0.2075,0.241042
0.2100,0.245262
0.2125,0.214184
0.2150,0.199153
0.2175,0.194293
0.2200,0.182380
0.2225,0.146521
0.2250,0.117184
0.2275,0.154850
0.2300,0.120768
0.2325,0.098526
0.2350,0.097847
0.2375,0.087705
0.2400,0.073378
0.2425,0.066170
0.2450,0.061658
0.2475,0.052742
0.2500,0.037088
0.2525,0.025185
0.2550,0.014994
0.2575,0.041604
0.2600,0.000000
0.2625,0.000000
0.2650,0.000000
0.2675,0.028343
0.2700,0.017606
0.2725,0.009076
0.2750,0.004814
0.2775,0.019634
0.2800,0.016249
0.2825,0.015959
0.2850,0.018840
0.2875,0.000000
0.2900,0.013168
0.2925,0.007928
0.2950,0.008169
0.2975,0.000000
0.3000,0.023681
0.3025,0.015461
0.3050,0.023915
0.3075,0.005310
0.3100,0.002961
0.3125,0.000000
0.3150,0.000000
0.3175,0.000000
0.3200,0.000000
0.3225,0.017456
0.3250,0.025595
0.3275,0.000000
0.3300,0.000000
0.3325,0.000000
0.3350,0.000000
0.3375,0.017032
0.3400,0.000000
0.3425,0.000000
0.3450,0.009248
0.3475,0.019598
0.3500,0.007822
0.3525,0.002808
0.3550,0.000000
0.3575,0.007136
0.3600,0.018324
0.3625,0.000000
0.3650,0.008858
0.3675,0.019598
0.3700,0.015549
0.3725,0.019659
0.3750,0.000000
0.3775,0.000000
0.3800,0.000000
0.3825,0.000000
0.3850,0.006284
0.3875,0.015061
0.3900,0.000000
0.3925,0.018788
0.3950,0.022098
0.3975,0.008191
0.4000,0.002339
0.4025,0.015626
0.4050,0.010399
0.4075,0.015821
0.4100,0.000000
0.4125,0.000000
0.4150,0.000000
0.4175,0.023574
0.4200,0.012246
0.4225,0.007630
0.4250,0.000000
0.4275,0.000000
0.4300,0.001098
0.4325,0.000000
0.4350,0.006354
0.4375,0.009200
0.4400,0.007840
0.4425,0.011219
0.4450,0.005398
0.4475,0.027790
0.4500,0.012801
0.4525,0.020261
0.4550,0.005755
0.4575,0.000000
0.4600,0.014422
0.4625,0.000000
0.4650,0.003270
0.4675,0.000000
0.4700,0.012281
0.4725,0.000000
0.4750,0.000000
0.4775,0.018954
0.4800,0.015019
0.4825,0.007688
0.4850,0.005581
0.4875,0.000476
0.4900,0.015340
0.4925,0.005720
0.4950,0.000000
0.4975,0.017820
0.5000,0.003522
0.5025,0.006657
0.5050,0.000000
0.5075,0.035853
0.5100,0.012427
0.5125,0.000000
0.5150,0.031471
0.5175,0.024660
0.5200,0.014999
0.5225,0.000000
0.5250,0.031562
0.5275,0.009939
0.5300,0.002155
0.5325,0.000000
0.5350,0.019817
0.5375,0.009278
0.5400,0.001412
0.5425,0.009316
0.5450,0.018151
0.5475,0.030774
0.5500,0.025219
0.5525,0.016086
0.5550,0.027481
0.5575,0.001504
0.5600,0.017128
0.5625,0.013537
0.5650,0.017951
0.5675,0.015676
0.5700,0.006814
0.5725,0.000000
0.5750,0.000000
0.5775,0.000000
0.5800,0.000000
0.5825,0.017076
0.5850,0.018778
0.5875,0.000000
0.5900,0.018046
0.5925,0.000000
0.5950,0.011678
0.5975,0.015067
0.6000,0.000000
0.6025,0.000000
0.6050,0.000000
0.6075,0.000000
0.6100,0.001241
0.6125,0.016965
0.6150,0.007058
0.6175,0.008943
0.6200,0.000000
0.6225,0.000000
0.6250,0.000000
0.6275,0.011032
0.6300,0.010054
0.6325,0.012163
0.6350,0.000000
0.6375,0.029709
0.6400,0.000000
0.6425,0.008660
0.6450,0.018777
0.6475,0.016025
0.6500,0.000000
0.6525,0.001004
0.6550,0.000000
0.6575,0.002164
0.6600,0.010556
0.6625,0.011703
0.6650,0.013840
0.6675,0.017806
0.6700,0.009741
0.6725,0.000000
0.6750,0.035079
0.6775,0.010138
0.6800,0.019497
0.6825,0.023742
0.6850,0.008286
0.6875,0.016650
0.6900,0.013388
0.6925,0.002245
0.6950,0.018016
0.6975,0.000000
0.7000,0.009776
0.7025,0.000000
0.7050,0.032771
0.7075,0.000000
0.7100,0.009654
0.7125,0.009467
0.7150,0.033186
0.7175,0.000000
0.7200,0.007703
0.7225,0.003100
0.7250,0.028860
0.7275,0.000000
0.7300,0.027225
0.7325,0.000000
0.7350,0.002944
0.7375,0.032379
0.7400,0.025964
0.7425,0.021086
0.7450,0.000000
0.7475,0.000000
0.7500,0.000000
0.7525,0.015227
0.7550,0.000000
0.7575,0.001231
0.7600,0.015520
0.7625,0.000000
0.7650,0.005046
0.7675,0.000000
0.7700,0.000000
0.7725,0.000000
0.7750,0.000000
0.7775,0.015948
0.7800,0.001035
0.7825,0.000000
0.7850,0.004763
0.7875,0.014775
0.7900,0.017278
0.7925,0.016038
0.7950,0.000000
0.7975,0.025164
0.8000,0.000000
0.8025,0.017856
0.8050,0.015992
0.8075,0.004862
0.8100,0.000000
0.8125,0.111021
0.8150,0.114686
0.8175,0.182953
0.8200,0.213910
0.8225,0.206168
0.8250,0.257099
0.8275,0.283709
0.8300,0.323074
0.8325,0.371756
0.8350,0.415359
0.8375,0.466297
0.8400,0.521207
0.8425,0.526467
0.8450,0.578433
0.8475,0.642426
0.8500,0.686712
0.8525,0.737876
0.8550,0.792922
0.8575,0.818505
0.8600,0.836869
0.8625,0.907395
0.8650,0.914096
0.8675,0.936968
0.8700,0.986724
0.8725,0.984488
0.8750,1.001226
0.8775,1.014071
0.8800,0.983730
0.8825,0.993129
0.8850,0.968913
0.8875,0.954720
0.8900,0.907878
0.8925,0.909655
0.8950,0.863285
0.8975,0.823387
0.9000,0.746878
0.9025,0.752563
0.9050,0.695034
0.9075,0.634773
0.9100,0.582183
0.9125,0.572423
0.9150,0.490015
0.9175,0.417681
0.9200,0.411919
0.9225,0.320260
0.9250,0.307564
0.9275,0.233140
0.9300,0.221512
0.9325,0.173651
0.9350,0.172618
0.9375,0.138323
0.9400,0.097886
0.9425,0.080006
0.9450,0.085030
0.9475,0.104620
0.9500,0.082644
0.9525,0.102533
0.9550,0.104969
0.9575,0.105655
0.9600,0.119773
0.9625,0.145898
0.9650,0.153051
0.9675,0.193823
0.9700,0.212977
0.9725,0.228406
0.9750,0.218455
0.9775,0.259844
0.9800,0.284394
0.9825,0.307503
0.9850,0.296649
0.9875,0.273961
0.9900,0.294033
0.9925,0.303652
0.9950,0.312889
0.9975,0.280701
1.0000,0.271336
1.0025,0.275336
1.0050,0.245742
1.0075,0.221661
1.0100,0.230956
1.0125,0.211930
1.0150,0.208918
1.0175,0.193478
1.0200,0.146872
1.0225,0.144396
1.0250,0.116996
1.0275,0.132608
1.0300,0.103408
1.0325,0.100362
1.0350,0.110583
1.0375,0.112279
1.0400,0.058815
1.0425,0.029887
1.0450,0.037919
1.0475,0.039199
1.0500,0.019491
1.0525,0.030148
1.0550,0.051080
1.0575,0.017930
1.0600,0.000000
1.0625,0.000000
1.0650,0.000000
1.0675,0.013069
1.0700,0.009050
1.0725,0.000000
1.0750,0.012965
1.0775,0.006814
1.0800,0.000000
1.0825,0.017495
1.0850,0.012674
1.0875,0.003123
1.0900,0.014700
1.0925,0.012032
1.0950,0.009842
1.0975,0.014438
1.1000,0.000000
1.1025,0.006347
1.1050,0.013618
1.1075,0.000000
1.1100,0.000000
1.1125,0.000000
1.1150,0.008475
1.1175,0.008664
1.1200,0.022451
1.1225,0.012318
1.1250,0.000000
1.1275,0.005506
1.1300,0.019773
1.1325,0.015267
1.1350,0.012434
1.1375,0.000000
1.1400,0.009873
1.1425,0.011142
1.1450,0.000000
1.1475,0.000000
1.1500,0.003999
1.1525,0.000000
1.1550,0.018196
1.1575,0.000000
1.1600,0.000000
1.1625,0.007304
1.1650,0.006021
1.1675,0.029131
1.1700,0.022061
1.1725,0.000000
1.1750,0.000000
1.1775,0.015965
1.1800,0.007237
1.1825,0.000000
1.1850,0.000000
1.1875,0.000000
1.1900,0.000000
1.1925,0.000000
1.1950,0.000000
1.1975,0.013481
1.2000,0.003665
1.2025,0.000000
1.2050,0.005161
1.2075,0.001150
1.2100,0.012063
1.2125,0.005058
1.2150,0.005749
1.2175,0.019979
1.2200,0.005047
1.2225,0.000000
1.2250,0.000000
1.2275,0.000000
1.2300,0.000000
1.2325,0.006546
1.2350,0.024206
1.2375,0.000000
1.2400,0.000000
1.2425,0.018501
1.2450,0.001384
1.2475,0.005579
1.2500,0.010751
1.2525,0.000000
1.2550,0.011350
1.2575,0.007582
1.2600,0.000000
1.2625,0.007378
1.2650,0.000916
1.2675,0.015465
1.2700,0.000000
1.2725,0.020150
1.2750,0.005905
1.2775,0.000000
1.2800,0.000000
1.2825,0.000000
1.2850,0.014610
1.2875,0.000811
1.2900,0.025092
1.2925,0.003704
1.2950,0.000000
1.2975,0.000000
1.3000,0.005595
1.3025,0.000000
1.3050,0.021767
1.3075,0.000000
1.3100,0.016416
1.3125,0.001375
1.3150,0.024964
1.3175,0.000827
1.3200,0.021310
1.3225,0.015791
1.3250,0.022265
1.3275,0.000000
1.3300,0.003840
1.3325,0.026689
1.3350,0.000000
1.3375,0.004209
1.3400,0.005924
1.3425,0.011310
1.3450,0.025629
1.3475,0.000000
1.3500,0.000000
1.3525,0.000000
1.3550,0.001435
1.3575,0.007283
1.3600,0.002537
1.3625,0.005600
1.3650,0.000000
1.3675,0.010776
1.3700,0.000000
1.3725,0.000000
1.3750,0.024992
1.3775,0.016852
1.3800,0.021386
1.3825,0.017659
1.3850,0.010066
1.3875,0.000000
1.3900,0.005298
1.3925,0.005490
1.3950,0.000000
1.3975,0.000000
1.4000,0.000000
1.4025,0.000000
1.4050,0.011406
1.4075,0.008402
1.4100,0.032533
1.4125,0.001365
1.4150,0.018118
1.4175,0.002652
1.4200,0.000000
1.4225,0.008128
1.4250,0.007937
1.4275,0.000000
1.4300,0.000000
1.4325,0.000000
1.4350,0.000000
1.4375,0.000000
1.4400,0.000000
1.4425,0.016617
1.4450,0.017012
1.4475,0.000000
1.4500,0.004364
1.4525,0.000000
1.4550,0.000000
1.4575,0.013601
1.4600,0.000000
1.4625,0.015665
1.4650,0.000000
1.4675,0.013920
1.4700,0.007674
1.4725,0.021168
1.4750,0.000000
1.4775,0.030669
1.4800,0.015404
1.4825,0.004384
1.4850,0.004248
1.4875,0.006985
1.4900,0.018016
1.4925,0.007674
1.4950,0.000000
1.4975,0.000000
1.5000,0.005435
1.5025,0.000000
1.5050,0.000000
1.5075,0.010514
1.5100,0.027722
1.5125,0.028410
1.5150,0.036022
1.5175,0.004347
1.5200,0.000000
1.5225,0.000000
1.5250,0.004168
1.5275,0.000000
1.5300,0.016794
1.5325,0.004612
1.5350,0.008308
1.5375,0.014595
1.5400,0.033705
1.5425,0.000000
1.5450,0.010291
1.5475,0.012394
1.5500,0.000000
1.5525,0.011108
1.5550,0.009025
1.5575,0.014284
1.5600,0.000000
1.5625,0.014613
1.5650,0.000000
1.5675,0.011850
1.5700,0.016067
1.5725,0.000000
1.5750,0.000000
1.5775,0.002211
1.5800,0.018354
1.5825,0.000000
1.5850,0.005205
1.5875,0.010855
1.5900,0.000000
1.5925,0.015458
1.5950,0.000933
1.5975,0.000000
1.6000,0.029334
1.6025,0.009364
1.6050,0.022025
1.6075,0.000000
1.6100,0.018307
1.6125,0.130610
1.6150,0.168457
1.6175,0.161535
1.6200,0.185991
1.6225,0.223935
1.6250,0.269266
1.6275,0.328311
1.6300,0.313469
1.6325,0.365478
1.6350,0.406965
1.6375,0.450663
1.6400,0.498043
1.6425,0.543638
1.6450,0.591371
1.6475,0.647761
1.6500,0.705764
1.6525,0.713050
1.6550,0.757899
1.6575,0.849555
1.6600,0.853273
1.6625,0.907034
1.6650,0.916112
1.6675,0.965614
1.6700,1.004205
1.6725,0.959298
1.6750,1.022536
1.6775,0.990428
1.6800,1.021313
1.6825,0.957910
1.6850,0.989490
1.6875,0.945735
1.6900,0.944109
1.6925,0.910641
1.6950,0.878800
1.6975,0.838922
1.7000,0.761541
1.7025,0.742268
1.7050,0.692320
1.7075,0.661203
1.7100,0.615529
1.7125,0.551985
1.7150,0.500037
1.7175,0.418990
1.7200,0.401367
1.7225,0.349283
1.7250,0.295885
1.7275,0.239514
1.7300,0.215885
1.7325,0.167547
1.7350,0.167370
1.7375,0.102240
1.7400,0.129121
1.7425,0.114847
1.7450,0.102381
1.7475,0.084449
1.7500,0.095009
1.7525,0.067383
1.7550,0.072093
1.7575,0.096749
1.7600,0.116588
1.7625,0.142667
1.7650,0.148599
1.7675,0.167105
1.7700,0.180836
1.7725,0.239188
1.7750,0.230520
1.7775,0.287916
1.7800,0.294884
1.7825,0.249420
1.7850,0.258233
1.7875,0.304683
1.7900,0.302945
1.7925,0.271202
1.7950,0.294880
1.7975,0.278287
1.8000,0.255390
1.8025,0.250234
1.8050,0.247375
1.8075,0.235285
1.8100,0.222020
1.8125,0.200446
1.8150,0.225748
1.8175,0.193351
1.8200,0.163678
1.8225,0.142210
1.8250,0.126361
1.8275,0.133584
1.8300,0.100771
1.8325,0.084900
1.8350,0.094579
1.8375,0.064942
1.8400,0.094355
1.8425,0.060170
1.8450,0.043870
1.8475,0.048463
1.8500,0.037850
1.8525,0.054126
1.8550,0.009498
1.8575,0.049126
1.8600,0.016826
1.8625,0.006223
1.8650,0.000000
1.8675,0.041515
1.8700,0.000000
1.8725,0.000000
1.8750,0.035481
1.8775,0.035015
1.8800,0.006492
1.8825,0.000000
1.8850,0.009033
1.8875,0.005207
1.8900,0.018820
1.8925,0.017909
1.8950,0.000000
1.8975,0.018463
1.9000,0.025184
1.9025,0.029912
1.9050,0.018682
1.9075,0.002077
1.9100,0.003314
1.9125,0.020912
1.9150,0.035400
1.9175,0.035002
1.9200,0.011208
1.9225,0.004165
1.9250,0.003751
1.9275,0.028247
1.9300,0.000000
1.9325,0.018077
1.9350,0.022013
1.9375,0.021115
1.9400,0.018607
1.9425,0.014077
1.9450,0.000000
1.9475,0.000000
1.9500,0.000000
1.9525,0.002326
1.9550,0.008081
1.9575,0.001932
1.9600,0.000000
1.9625,0.016022
1.9650,0.000000
1.9675,0.000000
1.9700,0.000000
1.9725,0.000000
1.9750,0.000000
1.9775,0.000000
1.9800,0.019233
1.9825,0.000000
1.9850,0.010002
1.9875,0.000000
1.9900,0.000000
1.9925,0.008837
1.9950,0.031554
1.9975,0.029795
2.0000,0.005325
2.0025,0.019738
2.0050,0.000000
2.0075,0.000000
2.0100,0.028020
2.0125,0.000000
2.0150,0.002274
2.0175,0.000000
2.0200,0.000000
2.0225,0.014999
2.0250,0.000000
2.0275,0.000000
2.0300,0.000000
2.0325,0.000000
2.0350,0.000000
2.0375,0.000000
2.0400,0.000000
2.0425,0.000000
2.0450,0.000000
2.0475,0.019301
2.0500,0.030085
2.0525,0.000000
2.0550,0.000620
2.0575,0.003837
2.0600,0.008751
2.0625,0.012184
2.0650,0.000000
2.0675,0.011176
2.0700,0.015659
2.0725,0.000000
2.0750,0.000000
2.0775,0.016520
2.0800,0.026077
2.0825,0.000000
2.0850,0.016501
2.0875,0.000000
2.0900,0.018920
2.0925,0.000000
2.0950,0.000000
2.0975,0.000000
2.1000,0.023905
2.1025,0.011751
2.1050,0.016676
2.1075,0.000000
2.1100,0.000000
2.1125,0.002368
2.1150,0.015995
2.1175,0.030677
2.1200,0.000000
2.1225,0.017653
2.1250,0.000000
2.1275,0.000000
2.1300,0.000270
2.1325,0.012671
2.1350,0.000000
2.1375,0.034261
2.1400,0.012436
2.1425,0.025933
2.1450,0.000000
2.1475,0.019714
2.1500,0.002876
2.1525,0.006996
2.1550,0.018099
2.1575,0.017499
2.1600,0.008600
2.1625,0.005163
2.1650,0.014790
2.1675,0.000000
2.1700,0.021237
2.1725,0.001273
2.1750,0.006875
2.1775,0.014373
2.1800,0.014633
2.1825,0.018608
2.1850,0.013396
2.1875,0.000027
2.1900,0.000000
2.1925,0.000000
2.1950,0.000000
2.1975,0.017173
2.2000,0.013109
2.2025,0.002918
2.2050,0.000000
2.2075,0.000000
2.2100,0.000000
2.2125,0.008811
2.2150,0.003334
2.2175,0.016409
2.2200,0.000000
2.2225,0.022418
2.2250,0.000000
2.2275,0.000000
2.2300,0.000000
2.2325,0.010109
2.2350,0.029666
2.2375,0.000000
2.2400,0.000000
2.2425,0.012953
2.2450,0.000000
2.2475,0.000000
2.2500,0.002426
2.2525,0.000000
2.2550,0.000000
2.2575,0.004203
2.2600,0.000000
2.2625,0.014986
2.2650,0.024893
2.2675,0.022062
2.2700,0.015390
2.2725,0.001771
2.2750,0.000000
2.2775,0.011975
2.2800,0.000693
2.2825,0.000000
2.2850,0.010692
2.2875,0.003414
2.2900,0.025806
2.2925,0.000000
2.2950,0.014849
2.2975,0.013622
2.3000,0.013026
2.3025,0.000000
2.3050,0.000000
2.3075,0.012505
2.3100,0.007542
2.3125,0.033696
2.3150,0.000000
2.3175,0.009991
2.3200,0.000000
2.3225,0.000000
2.3250,0.000000
2.3275,0.000000
2.3300,0.008418
2.3325,0.019123
2.3350,0.019278
2.3375,0.026836
2.3400,0.014426
2.3425,0.027252
2.3450,0.000000
2.3475,0.005838
2.3500,0.010671
2.3525,0.010166
2.3550,0.034338
2.3575,0.000000
2.3600,0.000000
2.3625,0.004486
2.3650,0.000000
2.3675,0.000000
2.3700,0.000000
2.3725,0.007467
2.3750,0.009848
2.3775,0.000336
2.3800,0.014937
2.3825,0.010143
2.3850,0.005698
2.3875,0.000000
2.3900,0.000000
2.3925,0.000000
2.3950,0.000000
2.3975,0.000000
2.4000,0.021733
2.4025,0.000000
2.4050,0.001796
2.4075,0.000000
2.4100,0.000000
2.4125,0.035032
2.4150,0.165890
2.4175,0.171001
2.4200,0.199799
2.4225,0.233401
2.4250,0.275712
2.4275,0.281948
2.4300,0.301127
2.4325,0.394288
2.4350,0.412684
2.4375,0.474566
2.4400,0.510651
2.4425,0.550380
2.4450,0.584975
2.4475,0.662974
2.4500,0.679559
2.4525,0.710871
2.4550,0.754315
2.4575,0.848164
2.4600,0.861367
2.4625,0.928491
2.4650,0.942057
2.4675,0.974351
2.4700,1.005785
2.4725,1.008690
2.4750,1.019479
2.4775,1.001752
2.4800,0.988372
2.4825,0.991128
2.4850,0.954129
2.4875,0.976432
2.4900,0.925666
2.4925,0.882514
2.4950,0.841024
2.4975,0.796198
2.5000,0.805356
2.5025,0.721406
2.5050,0.690682
2.5075,0.656280
2.5100,0.627309
2.5125,0.543117
2.5150,0.474718
2.5175,0.408193
2.5200,0.421508
2.5225,0.343110
2.5250,0.299169
2.5275,0.272874
2.5300,0.233674
2.5325,0.218076
2.5350,0.171605
2.5375,0.139581
2.5400,0.114464
2.5425,0.084237
2.5450,0.085456
2.5475,0.098981
2.5500,0.047641
2.5525,0.078298
2.5550,0.100402
2.5575,0.106167
2.5600,0.132804
2.5625,0.138107
2.5650,0.177509
2.5675,0.192182
2.5700,0.217699
2.5725,0.209842
2.5750,0.262342
2.5775,0.238589
2.5800,0.271941
2.5825,0.288507
2.5850,0.297692
2.5875,0.273657
2.5900,0.261462
2.5925,0.296810
2.5950,0.302079
2.5975,0.282129
2.6000,0.255054
2.6025,0.235168
2.6050,0.248269
2.6075,0.243004
2.6100,0.215169
2.6125,0.189578
2.6150,0.220107
2.6175,0.162504
2.6200,0.167013
2.6225,0.137310
2.6250,0.113245
2.6275,0.133870
2.6300,0.104576
2.6325,0.116989
2.6350,0.095307
2.6375,0.049289
2.6400,0.069219
2.6425,0.089358
2.6450,0.042479
2.6475,0.071628
2.6500,0.038882
2.6525,0.016958
2.6550,0.010721
2.6575,0.053783
2.6600,0.025374
2.6625,0.009692
2.6650,0.000000
2.6675,0.011851
2.6700,0.015609
2.6725,0.000000
2.6750,0.000000
2.6775,0.007006
2.6800,0.032677
2.6825,0.000000
2.6850,0.030466
2.6875,0.008457
2.6900,0.000000
2.6925,0.000000
2.6950,0.000000
2.6975,0.000000
2.7000,0.002254
2.7025,0.000000
2.7050,0.011057
2.7075,0.023081
2.7100,0.005289
2.7125,0.000000
2.7150,0.024602
2.7175,0.026116
2.7200,0.009211
2.7225,0.000000
2.7250,0.006087
2.7275,0.000000
2.7300,0.022287
2.7325,0.021488
2.7350,0.010096
2.7375,0.000000
2.7400,0.025016
2.7425,0.000000
2.7450,0.016930
2.7475,0.000000
2.7500,0.000000
2.7525,0.019991
2.7550,0.017793
2.7575,0.000000
2.7600,0.004183
2.7625,0.000000
2.7650,0.027971
2.7675,0.000000
2.7700,0.000000
2.7725,0.000000
2.7750,0.000000
2.7775,0.000000
2.7800,0.005919
2.7825,0.003700
2.7850,0.004546
2.7875,0.001357
2.7900,0.009153
2.7925,0.002300
2.7950,0.020284
2.7975,0.034509
2.8000,0.005960
2.8025,0.000000
2.8050,0.003619
2.8075,0.000000
2.8100,0.000000
2.8125,0.005433
2.8150,0.000000
2.8175,0.000000
2.8200,0.000000
2.8225,0.005568
2.8250,0.004892
2.8275,0.000428
2.8300,0.000000
2.8325,0.000000
2.8350,0.000000
2.8375,0.019174
2.8400,0.030921
2.8425,0.000000
2.8450,0.011834
2.8475,0.009339
2.8500,0.013047
2.8525,0.000000
2.8550,0.000000
2.8575,0.002884
2.8600,0.003408
2.8625,0.000000
2.8650,0.017692
2.8675,0.000000
2.8700,0.030300
2.8725,0.006505
2.8750,0.011160
2.8775,0.016674
2.8800,0.005919
2.8825,0.018005
2.8850,0.008267
2.8875,0.000000
2.8900,0.000000
2.8925,0.016493
2.8950,0.015910
2.8975,0.011771
2.9000,0.000000
2.9025,0.000000
2.9050,0.019573
2.9075,0.019421
2.9100,0.015476
2.9125,0.000000
2.9150,0.007856
2.9175,0.000000
2.9200,0.001394
2.9225,0.014492
2.9250,0.007074
2.9275,0.025222
2.9300,0.000000
2.9325,0.000000
2.9350,0.000000
2.9375,0.008626
2.9400,0.000000
2.9425,0.006510
2.9450,0.008109
2.9475,0.000000
2.9500,0.000000
2.9525,0.020261
2.9550,0.019051
2.9575,0.018378
2.9600,0.000000
2.9625,0.000000
2.9650,0.006493
2.9675,0.016980
2.9700,0.027618
2.9725,0.006806
2.9750,0.000000
2.9775,0.000000
2.9800,0.002620
2.9825,0.015718
2.9850,0.000000
2.9875,0.000000
2.9900,0.022763
2.9925,0.001760
2.9950,0.017176
2.9975,0.000000
3.0000,0.000000
3.0025,0.008965
3.0050,0.007733
3.0075,0.000000
3.0100,0.000000
3.0125,0.000000
3.0150,0.000000
3.0175,0.030354
3.0200,0.021549
3.0225,0.000000
3.0250,0.000000
3.0275,0.006588
3.0300,0.019131
3.0325,0.007787
3.0350,0.000000
3.0375,0.000000
3.0400,0.017208
3.0425,0.004243
3.0450,0.012497
3.0475,0.000000
3.0500,0.002311
3.0525,0.010769
3.0550,0.006476
3.0575,0.032563
3.0600,0.000000
3.0625,0.021861
3.0650,0.000000
3.0675,0.000000
3.0700,0.005319
3.0725,0.000000
3.0750,0.005925
3.0775,0.000000
3.0800,0.001069
3.0825,0.000004
3.0850,0.015354
3.0875,0.008836
3.0900,0.029834
3.0925,0.017212
3.0950,0.000000
3.0975,0.000000
3.1000,0.007387
3.1025,0.013330
3.1050,0.015904
3.1075,0.000000
3.1100,0.000000
3.1125,0.000000
3.1150,0.010791
3.1175,0.000000
3.1200,0.000000
3.1225,0.003436
3.1250,0.000000
3.1275,0.003864
3.1300,0.000000
3.1325,0.005390
3.1350,0.000000
3.1375,0.027695
3.1400,0.000000
3.1425,0.012187
3.1450,0.003160
3.1475,0.000000
3.1500,0.000725
3.1525,0.031661
3.1550,0.000000
3.1575,0.005974
3.1600,0.000930
3.1625,0.019960
3.1650,0.001330
3.1675,0.012261
3.1700,0.025389
3.1725,0.000000
3.1750,0.000000
3.1775,0.000000
3.1800,0.025003
3.1825,0.000000
3.1850,0.000092
3.1875,0.018239
3.1900,0.000000
3.1925,0.000000
3.1950,0.006287
3.1975,0.000000
3.2000,0.000000
3.2025,0.023046
3.2050,0.031362
3.2075,0.011045
3.2100,0.003576
3.2125,0.105343
3.2150,0.167456
3.2175,0.149943
3.2200,0.199550
3.2225,0.241908
3.2250,0.254406
3.2275,0.290716
3.2300,0.327768
3.2325,0.373027
3.2350,0.407986
3.2375,0.491599
3.2400,0.498242
3.2425,0.529032
3.2450,0.572212
3.2475,0.649156
3.2500,0.684816
3.2525,0.701183
3.2550,0.792640
3.2575,0.822931
3.2600,0.835363
3.2625,0.889105
3.2650,0.919897
3.2675,0.939273
3.2700,0.983181
3.2725,0.997502
3.2750,0.997528
3.2775,1.031637
3.2800,1.014132
3.2825,0.985127
3.2850,0.985802
3.2875,0.957905
3.2900,0.919272
3.2925,0.905122
3.2950,0.830428
3.2975,0.813810
3.3000,0.762533
3.3025,0.717322
3.3050,0.688089
3.3075,0.666097
3.3100,0.599241
3.3125,0.520667
3.3150,0.489529
3.3175,0.438886
3.3200,0.391556
3.3225,0.344084
3.3250,0.310384
3.3275,0.274316
3.3300,0.211596
3.3325,0.195078
3.3350,0.135792
3.3375,0.118936
3.3400,0.128134
3.3425,0.125523
3.3450,0.062223
3.3475,0.064307
3.3500,0.072264
3.3525,0.060120
3.3550,0.095362
3.3575,0.097503
3.3600,0.157642
3.3625,0.164564
3.3650,0.182749
3.3675,0.160142
3.3700,0.210279
3.3725,0.200213
3.3750,0.214389
3.3775,0.250458
3.3800,0.279787
3.3825,0.272104
3.3850,0.272990
3.3875,0.286984
3.3900,0.291305
3.3925,0.295317
3.3950,0.269951
3.3975,0.285817
3.4000,0.249551
3.4025,0.292488
3.4050,0.261390
3.4075,0.245913
3.4100,0.207125
3.4125,0.189169
3.4150,0.202467
3.4175,0.149533
3.4200,0.171097
3.4225,0.127038
3.4250,0.125623
3.4275,0.149562
3.4300,0.106543
3.4325,0.101468
3.4350,0.078233
3.4375,0.048916
3.4400,0.072624
3.4425,0.049792
3.4450,0.036714
3.4475,0.059786
3.4500,0.009302
3.4525,0.038493
3.4550,0.015217
3.4575,0.030494
3.4600,0.012131
3.4625,0.000000
3.4650,0.000000
3.4675,0.016166
3.4700,0.010978
3.4725,0.000000
3.4750,0.000000
3.4775,0.028851
3.4800,0.000000
3.4825,0.001362
3.4850,0.018423
3.4875,0.007081
3.4900,0.000000
3.4925,0.000000
3.4950,0.018892
3.4975,0.000000
3.5000,0.000000
3.5025,0.004438
3.5050,0.010720
3.5075,0.012967
3.5100,0.017836
3.5125,0.018307
3.5150,0.012334
3.5175,0.000000
3.5200,0.007397
3.5225,0.000000
3.5250,0.022575
3.5275,0.005280
3.5300,0.000000
3.5325,0.000000
3.5350,0.000000
3.5375,0.002479
3.5400,0.000000
3.5425,0.000000
3.5450,0.000000
3.5475,0.015363
3.5500,0.000000
3.5525,0.000000
3.5550,0.025644
3.5575,0.006177
3.5600,0.003547
3.5625,0.000000
3.5650,0.014212
3.5675,0.000000
3.5700,0.012701
3.5725,0.000000
3.5750,0.029520
3.5775,0.020685
3.5800,0.017662
3.5825,0.000000
3.5850,0.019241
3.5875,0.000000
3.5900,0.000000
3.5925,0.000000
3.5950,0.032307
3.5975,0.011494
3.6000,0.014840
3.6025,0.023953
3.6050,0.000000
3.6075,0.023674
3.6100,0.000419
3.6125,0.007058
3.6150,0.000000
3.6175,0.000000
3.6200,0.018165
3.6225,0.000000
3.6250,0.000000
3.6275,0.012970
3.6300,0.013249
3.6325,0.012635
3.6350,0.000000
3.6375,0.000000
3.6400,0.000000
3.6425,0.014040
3.6450,0.015967
3.6475,0.000000
3.6500,0.000000
3.6525,0.016249
3.6550,0.000000
3.6575,0.000000
3.6600,0.000000
3.6625,0.000000
3.6650,0.001262
3.6675,0.000000
3.6700,0.014999
3.6725,0.000000
3.6750,0.016642
3.6775,0.006031
3.6800,0.009900
3.6825,0.000000
3.6850,0.012071
3.6875,0.000000
3.6900,0.005828
3.6925,0.000000
3.6950,0.000000
3.6975,0.005316
3.7000,0.000000
3.7025,0.014874
3.7050,0.026652
3.7075,0.011393
3.7100,0.020627
3.7125,0.000000
3.7150,0.018871
3.7175,0.001993
3.7200,0.013605
3.7225,0.014687
3.7250,0.027119
3.7275,0.010937
3.7300,0.030295
3.7325,0.024134
3.7350,0.000000
3.7375,0.008386
3.7400,0.016940
3.7425,0.002838
3.7450,0.000000
3.7475,0.000000
3.7500,0.025051
3.7525,0.019049
3.7550,0.004387
3.7575,0.014925
3.7600,0.000000
3.7625,0.000000
3.7650,0.000000
3.7675,0.001372
3.7700,0.013174
3.7725,0.006977
3.7750,0.000000
3.7775,0.000000
3.7800,0.005816
3.7825,0.013974
3.7850,0.000000
3.7875,0.011347
3.7900,0.000000
3.7925,0.004266
3.7950,0.000000
3.7975,0.022950
3.8000,0.012948
3.8025,0.000000
3.8050,0.004332
3.8075,0.000000
3.8100,0.005639
3.8125,0.000000
3.8150,0.006654
3.8175,0.000000
3.8200,0.023839
3.8225,0.000000
3.8250,0.000000
3.8275,0.013934
3.8300,0.019484
3.8325,0.000000
3.8350,0.000000
3.8375,0.006084
3.8400,0.003646
3.8425,0.000000
3.8450,0.014559
3.8475,0.026418
3.8500,0.000000
3.8525,0.000000
3.8550,0.009978
3.8575,0.014870
3.8600,0.000000
3.8625,0.017291
3.8650,0.009130
3.8675,0.022178
3.8700,0.019255
3.8725,0.018709
3.8750,0.016830
3.8775,0.007417
3.8800,0.000000
3.8825,0.009417
3.8850,0.016438
3.8875,0.010983
3.8900,0.014696
3.8925,0.011394
3.8950,0.008137
3.8975,0.026352
3.9000,0.000000
3.9025,0.007054
3.9050,0.000000
3.9075,0.000000
3.9100,0.019327
3.9125,0.008477
3.9150,0.000000
3.9175,0.030392
3.9200,0.032760
3.9225,0.019748
3.9250,0.001233
3.9275,0.017993
3.9300,0.000000
3.9325,0.000000
3.9350,0.000000
3.9375,0.000000
3.9400,0.019623
3.9425,0.000000
3.9450,0.020742
3.9475,0.014165
3.9500,0.011231
3.9525,0.017031
3.9550,0.000000
3.9575,0.000000
3.9600,0.015171
3.9625,0.004225
3.9650,0.027479
3.9675,0.019354
3.9700,0.000000
3.9725,0.000000
3.9750,0.000000
3.9775,0.000000
3.9800,0.007837
3.9825,0.010312
3.9850,0.014953
3.9875,0.005390
3.9900,0.009952
3.9925,0.005876
3.9950,0.024075
3.9975,0.023012
4.0000,0.012077
4.0025,0.000000
4.0050,0.000602
4.0075,0.024503
4.0100,0.010586
4.0125,0.000000
4.0150,0.153623
4.0175,0.196959
4.0200,0.209464
4.0225,0.256801
4.0250,0.223315
4.0275,0.300710
4.0300,0.355108
4.0325,0.376542
4.0350,0.408339
4.0375,0.455351
4.0400,0.480041
4.0425,0.541945
4.0450,0.606055
4.0475,0.647405
4.0500,0.678252
4.0525,0.733827
4.0550,0.763335
4.0575,0.822448
4.0600,0.869485
4.0625,0.866222
4.0650,0.937603
4.0675,0.956476
4.0700,0.968113
4.0725,0.990582
4.0750,1.002152
4.0775,1.023672
4.0800,0.987808
4.0825,0.992250
4.0850,0.967477
4.0875,0.961247
4.0900,0.911646
4.0925,0.898304
4.0950,0.847482
4.0975,0.810354
4.1000,0.757294
4.1025,0.757358
4.1050,0.722511
4.1075,0.656748
4.1100,0.593045
4.1125,0.539475
4.1150,0.499938
4.1175,0.444663
4.1200,0.390732
4.1225,0.314549
4.1250,0.322499
4.1275,0.264928
4.1300,0.206370
4.1325,0.208397
4.1350,0.130404
4.1375,0.108900
4.1400,0.084347
4.1425,0.096044
4.1450,0.100655
4.1475,0.056523
4.1500,0.060595
4.1525,0.057693
4.1550,0.122445
4.1575,0.074352
4.1600,0.100316
4.1625,0.134378
4.1650,0.147286
4.1675,0.202082
4.1700,0.205298
4.1725,0.230145
4.1750,0.267134
4.1775,0.262117
4.1800,0.262640
4.1825,0.287558
4.1850,0.282102
4.1875,0.290755
4.1900,0.274190
4.1925,0.301568
4.1950,0.293971
4.1975,0.282948
4.2000,0.258098
4.2025,0.284532
4.2050,0.219707
4.2075,0.245104
4.2100,0.234606
4.2125,0.209062
4.2150,0.223295
4.2175,0.163032
4.2200,0.150148
4.2225,0.148739
4.2250,0.131458
4.2275,0.116750
4.2300,0.098390
4.2325,0.103182
4.2350,0.088828
4.2375,0.047413
4.2400,0.073790
4.2425,0.033821
4.2450,0.069547
4.2475,0.044034
4.2500,0.055835
4.2525,0.038571
4.2550,0.023457
4.2575,0.017855
4.2600,0.021317
4.2625,0.032387
4.2650,0.033421
4.2675,0.000000
4.2700,0.000562
4.2725,0.019443
4.2750,0.000000
4.2775,0.000000
4.2800,0.016612
4.2825,0.003021
4.2850,0.015337
4.2875,0.010851
4.2900,0.002605
4.2925,0.000000
4.2950,0.019985
4.2975,0.000000
4.3000,0.000125
4.3025,0.000000
4.3050,0.005641
4.3075,0.010035
4.3100,0.008314
4.3125,0.021110
4.3150,0.010728
4.3175,0.007848
4.3200,0.000000
4.3225,0.029331
4.3250,0.004128
4.3275,0.015305
4.3300,0.006331
4.3325,0.000000
4.3350,0.006832
4.3375,0.021127
4.3400,0.022688
4.3425,0.017255
4.3450,0.014241
4.3475,0.002753
4.3500,0.000000
4.3525,0.017774
4.3550,0.000000
4.3575,0.014028
4.3600,0.014102
4.3625,0.034595
4.3650,0.013208
4.3675,0.010412
4.3700,0.019693
4.3725,0.000000
4.3750,0.019557
4.3775,0.000509
4.3800,0.012665
4.3825,0.000000
4.3850,0.018860
4.3875,0.000000
4.3900,0.000000
4.3925,0.005489
4.3950,0.000000
4.3975,0.023525
4.4000,0.011603
4.4025,0.010983
4.4050,0.014156
4.4075,0.023669
4.4100,0.000000
4.4125,0.000000
4.4150,0.010215
4.4175,0.005415
4.4200,0.004599
4.4225,0.000000
4.4250,0.000000
4.4275,0.009465
4.4300,0.000000
4.4325,0.028006
4.4350,0.004085
4.4375,0.006477
4.4400,0.005360
4.4425,0.004959
4.4450,0.019425
4.4475,0.002431
4.4500,0.000000
4.4525,0.001157
4.4550,0.013441
4.4575,0.008135
4.4600,0.007054
4.4625,0.003197
4.4650,0.007627
4.4675,0.019868
4.4700,0.008095
4.4725,0.001656
4.4750,0.011774
4.4775,0.000000
4.4800,0.033492
4.4825,0.003403
4.4850,0.000000
4.4875,0.004435
4.4900,0.006315
4.4925,0.000000
4.4950,0.011450
4.4975,0.000000
4.5000,0.016952
4.5025,0.012120
4.5050,0.006316
4.5075,0.000000
4.5100,0.019000
4.5125,0.014003
4.5150,0.000000
4.5175,0.010501
4.5200,0.000000
4.5225,0.000000
4.5250,0.009311
4.5275,0.000000
4.5300,0.008632
4.5325,0.004622
4.5350,0.002561
4.5375,0.000000
4.5400,0.026148
4.5425,0.000000
4.5450,0.000000
4.5475,0.005829
4.5500,0.000000
4.5525,0.012329
4.5550,0.019581
4.5575,0.001611
4.5600,0.002172
4.5625,0.000000
4.5650,0.031312
4.5675,0.011962
4.5700,0.000000
4.5725,0.001628
4.5750,0.008557
4.5775,0.000000
4.5800,0.009946
4.5825,0.000000
4.5850,0.014083
4.5875,0.000000
4.5900,0.000000
4.5925,0.018542
4.5950,0.009535
4.5975,0.021899
4.6000,0.000000
4.6025,0.008916
4.6050,0.000000
4.6075,0.000000
4.6100,0.012150
4.6125,0.004335
4.6150,0.014972
4.6175,0.019500
4.6200,0.000000
4.6225,0.020400
4.6250,0.018079
4.6275,0.020407
4.6300,0.000752
4.6325,0.000000
4.6350,0.000000
4.6375,0.000000
4.6400,0.011844
4.6425,0.003494
4.6450,0.005732
4.6475,0.018049
4.6500,0.000000
4.6525,0.000887
4.6550,0.013070
4.6575,0.000000
4.6600,0.014773
4.6625,0.000979
4.6650,0.000000
4.6675,0.000000
4.6700,0.006650
4.6725,0.015454
4.6750,0.009856
4.6775,0.008738
4.6800,0.009890
4.6825,0.015881
4.6850,0.000000
4.6875,0.002070
4.6900,0.017117
4.6925,0.014593
4.6950,0.000000
4.6975,0.000000
4.7000,0.000000
4.7025,0.019822
4.7050,0.000000
4.7075,0.004816
4.7100,0.000000
4.7125,0.027658
4.7150,0.012959
4.7175,0.018813
4.7200,0.000000
4.7225,0.011057
4.7250,0.000000
4.7275,0.000000
4.7300,0.007190
4.7325,0.008143
4.7350,0.000000
4.7375,0.029640
4.7400,0.029892
4.7425,0.006727
4.7450,0.000000
4.7475,0.000000
4.7500,0.003976
4.7525,0.000000
4.7550,0.000000
4.7575,0.006181
4.7600,0.002740
4.7625,0.000000
4.7650,0.000000
4.7675,0.032496
4.7700,0.000000
4.7725,0.000000
4.7750,0.022582
4.7775,0.030240
4.7800,0.000000
4.7825,0.015721
4.7850,0.000000
4.7875,0.000000
4.7900,0.009613
4.7925,0.009445
4.7950,0.000000
4.7975,0.002112
4.8000,0.000000
4.8025,0.000000
4.8050,0.003516
4.8075,0.016996
4.8100,0.003115
4.8125,0.000000
4.8150,0.144860
4.8175,0.170636
4.8200,0.213761
4.8225,0.245425
4.8250,0.240411
4.8275,0.298023
4.8300,0.344868
4.8325,0.359673
4.8350,0.389211
4.8375,0.479424
4.8400,0.515267
4.8425,0.531456
4.8450,0.579469
4.8475,0.658811
4.8500,0.696589
4.8525,0.738650
4.8550,0.796877
4.8575,0.855312
4.8600,0.857947
4.8625,0.897187
4.8650,0.923142
4.8675,0.962053
4.8700,0.952300
4.8725,1.012775
4.8750,0.998817
4.8775,1.001453
4.8800,0.998620
4.8825,0.984842
4.8850,0.982123
4.8875,0.937553
4.8900,0.929504
4.8925,0.901906
4.8950,0.852653
4.8975,0.824421
4.9000,0.753860
4.9025,0.708858
4.9050,0.671912
4.9075,0.634327
4.9100,0.590440
4.9125,0.534385
4.9150,0.501413
4.9175,0.439112
4.9200,0.378255
4.9225,0.336850
4.9250,0.288483
4.9275,0.265811
4.9300,0.234716
4.9325,0.207877
4.9350,0.145905
4.9375,0.098070
4.9400,0.097326
4.9425,0.093148
4.9450,0.108717
4.9475,0.071721
4.9500,0.064353
4.9525,0.075862
4.9550,0.087116
4.9575,0.120307
4.9600,0.110047
4.9625,0.159896
4.9650,0.134091
4.9675,0.169093
4.9700,0.209474
4.9725,0.239480
4.9750,0.241042
4.9775,0.292160
4.9800,0.284720
4.9825,0.302208
4.9850,0.302991
4.9875,0.271061
4.9900,0.291838
4.9925,0.310407
4.9950,0.269602
4.9975,0.267115
5.0000,0.259912
5.0025,0.233645
5.0050,0.256194
5.0075,0.201672
5.0100,0.254328
5.0125,0.219100
5.0150,0.173060
5.0175,0.171595
5.0200,0.158386
5.0225,0.159755
5.0250,0.138720
5.0275,0.091532
5.0300,0.111835
5.0325,0.066975
5.0350,0.092560
5.0375,0.068376
5.0400,0.041933
5.0425,0.053788
5.0450,0.063943
5.0475,0.055464
5.0500,0.045197
5.0525,0.017037
5.0550,0.000000
5.0575,0.014457
5.0600,0.017151
5.0625,0.025462
5.0650,0.019977
5.0675,0.010994
5.0700,0.006084
5.0725,0.019356
5.0750,0.000000
5.0775,0.000000
5.0800,0.006620
5.0825,0.000000
5.0850,0.025789
5.0875,0.016530
5.0900,0.000000
5.0925,0.000000
5.0950,0.000792
5.0975,0.000000
5.1000,0.014327
5.1025,0.006430
5.1050,0.000000
5.1075,0.000000
5.1100,0.016563
5.1125,0.015180
5.1150,0.000000
5.1175,0.007849
5.1200,0.000000
5.1225,0.020269
5.1250,0.000000
5.1275,0.000000
5.1300,0.014744
5.1325,0.013305
5.1350,0.023529
5.1375,0.006574
5.1400,0.019519
5.1425,0.000000
5.1450,0.000000
5.1475,0.000000
5.1500,0.000000
5.1525,0.005400
5.1550,0.032158
5.1575,0.018682
5.1600,0.010476
5.1625,0.019402
5.1650,0.009327
5.1675,0.014199
5.1700,0.026270
5.1725,0.007907
5.1750,0.004785
5.1775,0.000000
5.1800,0.009131
5.1825,0.010776
5.1850,0.018649
5.1875,0.000000
5.1900,0.000000
5.1925,0.033891
5.1950,0.000000
5.1975,0.015013
5.2000,0.004222
5.2025,0.004418
5.2050,0.000000
5.2075,0.025067
5.2100,0.039192
5.2125,0.000000
5.2150,0.011378
5.2175,0.000000
5.2200,0.012668
5.2225,0.000000
5.2250,0.017632
5.2275,0.007468
5.2300,0.000000
5.2325,0.004499
5.2350,0.013516
5.2375,0.025806
5.2400,0.000000
5.2425,0.008651
5.2450,0.000000
5.2475,0.034459
5.2500,0.000000
5.2525,0.000000
5.2550,0.017291
5.2575,0.003391
5.2600,0.005117
5.2625,0.012591
5.2650,0.020042
5.2675,0.024635
5.2700,0.021306
5.2725,0.006095
5.2750,0.029013
5.2775,0.003646
5.2800,0.023829
5.2825,0.000000
5.2850,0.019244
5.2875,0.000000
5.2900,0.000000
5.2925,0.000000
5.2950,0.027038
5.2975,0.021196
5.3000,0.016250
5.3025,0.000000
5.3050,0.015570
5.3075,0.008076
5.3100,0.010847
5.3125,0.000000
5.3150,0.000000
5.3175,0.027761
5.3200,0.000000
5.3225,0.000000
5.3250,0.002073
5.3275,0.002775
5.3300,0.000000
5.3325,0.020557
5.3350,0.000000
5.3375,0.000000
5.3400,0.000000
5.3425,0.031383
5.3450,0.013490
5.3475,0.000000
5.3500,0.000000
5.3525,0.000000
5.3550,0.030097
5.3575,0.014086
5.3600,0.000000
5.3625,0.014134
5.3650,0.000000
5.3675,0.011526
5.3700,0.018110
5.3725,0.008966
5.3750,0.010149
5.3775,0.008636
5.3800,0.000000
5.3825,0.000899
5.3850,0.014761
5.3875,0.005398
5.3900,0.002140
5.3925,0.006228
5.3950,0.024274
5.3975,0.016432
5.4000,0.000000
5.4025,0.008603
5.4050,0.020544
5.4075,0.003266
5.4100,0.000000
5.4125,0.000000
5.4150,0.012818
5.4175,0.008250
5.4200,0.023869
5.4225,0.000000
5.4250,0.015831
5.4275,0.000000
5.4300,0.000000
5.4325,0.000000
5.4350,0.005714
5.4375,0.013908
5.4400,0.000000
5.4425,0.000000
5.4450,0.030168
5.4475,0.010946
5.4500,0.000000
5.4525,0.000989
5.4550,0.000000
5.4575,0.012163
5.4600,0.008013
5.4625,0.000000
5.4650,0.011734
5.4675,0.014695
5.4700,0.016958
5.4725,0.022247
5.4750,0.013734
5.4775,0.017252
5.4800,0.023723
5.4825,0.000000
5.4850,0.000000
5.4875,0.000000
5.4900,0.004217
5.4925,0.000000
5.4950,0.028425
5.4975,0.005580
5.5000,0.000000
5.5025,0.000000
5.5050,0.015478
5.5075,0.006278
5.5100,0.000000
5.5125,0.007825
5.5150,0.000000
5.5175,0.006902
5.5200,0.000000
5.5225,0.000000
5.5250,0.000000
5.5275,0.016003
5.5300,0.008733
5.5325,0.000000
5.5350,0.000000
5.5375,0.000000
5.5400,0.000000
5.5425,0.000000
5.5450,0.000000
5.5475,0.008036
5.5500,0.000000
5.5525,0.010958
5.5550,0.000000
5.5575,0.012906
5.5600,0.014575
5.5625,0.009429
5.5650,0.000000
5.5675,0.000000
5.5700,0.026190
5.5725,0.015013
5.5750,0.000000
5.5775,0.013519
5.5800,0.000000
5.5825,0.003398
5.5850,0.017847
5.5875,0.000000
5.5900,0.000000
5.5925,0.000000
5.5950,0.015470
5.5975,0.001885
5.6000,0.000000
5.6025,0.013957
5.6050,0.000000
5.6075,0.015070
5.6100,0.000000
5.6125,0.000000
5.6150,0.161637
5.6175,0.169571
5.6200,0.196657
5.6225,0.215121
5.6250,0.243663
5.6275,0.268748
5.6300,0.338764
5.6325,0.357269
5.6350,0.446072
5.6375,0.477408
5.6400,0.503132
5.6425,0.559914
5.6450,0.625424
5.6475,0.644470
5.6500,0.696544
5.6525,0.725492
5.6550,0.783730
5.6575,0.810109
5.6600,0.854971
5.6625,0.899344
5.6650,0.924484
5.6675,0.932095
5.6700,0.967461
5.6725,1.008920
5.6750,0.992995
5.6775,0.988574
5.6800,1.015787
5.6825,1.015247
5.6850,0.992708
5.6875,0.957915
5.6900,0.919566
5.6925,0.915771
5.6950,0.846409
5.6975,0.814605
5.7000,0.756448
5.7025,0.719166
5.7050,0.654265
5.7075,0.644930
5.7100,0.613146
5.7125,0.560246
5.7150,0.489422
5.7175,0.435833
5.7200,0.393343
5.7225,0.373332
5.7250,0.281305
5.7275,0.258057
5.7300,0.193353
5.7325,0.183362
5.7350,0.172766
5.7375,0.115034
5.7400,0.121290
5.7425,0.094177
5.7450,0.074376
5.7475,0.065997
5.7500,0.055256
5.7525,0.079470
5.7550,0.094845
5.7575,0.118960
5.7600,0.136056
5.7625,0.113457
5.7650,0.166134
5.7675,0.192272
5.7700,0.189526
5.7725,0.248062
5.7750,0.236582
5.7775,0.279180
5.7800,0.250241
5.7825,0.283400
5.7850,0.273629
5.7875,0.254001
5.7900,0.265969
5.7925,0.316676
5.7950,0.292317
5.7975,0.271910
5.8000,0.274216
5.8025,0.282173
5.8050,0.263813
5.8075,0.276716
5.8100,0.223011
5.8125,0.229129
5.8150,0.182233
5.8175,0.183813
5.8200,0.170031
5.8225,0.157429
5.8250,0.115379
5.8275,0.130001
5.8300,0.098596
5.8325,0.097695
5.8350,0.094897
5.8375,0.095398
5.8400,0.066277
5.8425,0.042035
5.8450,0.022870
5.8475,0.045168
5.8500,0.044105
5.8525,0.013735
5.8550,0.013035
5.8575,0.058898
5.8600,0.003848
5.8625,0.042813
5.8650,0.023078
5.8675,0.002748
5.8700,0.009257
5.8725,0.013184
5.8750,0.000000
5.8775,0.000000
5.8800,0.000000
5.8825,0.000000
5.8850,0.031136
5.8875,0.000000
5.8900,0.015172
5.8925,0.000000
5.8950,0.014756
5.8975,0.016544
5.9000,0.000000
5.9025,0.007839
5.9050,0.013121
5.9075,0.000000
5.9100,0.015461
5.9125,0.000595
5.9150,0.000000
5.9175,0.012881
5.9200,0.009067
5.9225,0.000000
5.9250,0.000000
5.9275,0.000000
5.9300,0.000000
5.9325,0.000000
5.9350,0.000000
5.9375,0.007323
5.9400,0.016440
5.9425,0.005427
5.9450,0.019637
5.9475,0.020897
5.9500,0.000000
5.9525,0.004447
5.9550,0.014944
5.9575,0.000000
5.9600,0.013718
5.9625,0.004093
5.9650,0.025484
5.9675,0.006254
5.9700,0.029154
5.9725,0.005322
5.9750,0.005617
5.9775,0.000000
5.9800,0.013261
5.9825,0.000000
5.9850,0.016615
5.9875,0.000000
5.9900,0.000000
5.9925,0.003176
5.9950,0.000000
5.9975,0.009276
6.0000,0.013602
6.0025,0.016602
6.0050,0.001583
6.0075,0.018958
6.0100,0.000000
6.0125,0.007678
6.0150,0.000000
6.0175,0.002199
6.0200,0.000000
6.0225,0.006777
6.0250,0.003116
6.0275,0.012481
6.0300,0.025803
6.0325,0.011907
6.0350,0.031671
6.0375,0.000000
6.0400,0.000000
6.0425,0.000000
6.0450,0.000000
6.0475,0.005154
6.0500,0.002106
6.0525,0.027304
6.0550,0.000000
6.0575,0.000000
6.0600,0.000000
6.0625,0.018610
6.0650,0.019774
6.0675,0.025446
6.0700,0.026347
6.0725,0.003962
6.0750,0.011497
6.0775,0.012709
6.0800,0.000000
6.0825,0.019230
6.0850,0.000000
6.0875,0.002935
6.0900,0.009120
6.0925,0.006184
6.0950,0.000000
6.0975,0.000000
6.1000,0.003184
6.1025,0.000000
6.1050,0.000516
6.1075,0.000000
6.1100,0.000000
6.1125,0.000000
6.1150,0.007773
6.1175,0.018215
6.1200,0.000000
6.1225,0.006823
6.1250,0.000000
6.1275,0.000000
6.1300,0.015206
6.1325,0.007737
6.1350,0.000000
6.1375,0.000000
6.1400,0.000000
6.1425,0.013378
6.1450,0.009519
6.1475,0.000000
6.1500,0.000000
6.1525,0.000000
6.1550,0.001933
6.1575,0.019819
6.1600,0.003304
6.1625,0.027495
6.1650,0.011138
6.1675,0.000000
6.1700,0.012918
6.1725,0.013754
6.1750,0.019432
6.1775,0.000000
6.1800,0.020419
6.1825,0.000000
6.1850,0.013009
6.1875,0.000000
6.1900,0.000000
6.1925,0.000000
6.1950,0.000000
6.1975,0.006799
6.2000,0.002625
6.2025,0.018621
6.2050,0.026095
6.2075,0.000000
6.2100,0.001768
6.2125,0.000000
6.2150,0.013119
6.2175,0.000000
6.2200,0.010048
6.2225,0.015086
6.2250,0.000000
6.2275,0.016952
6.2300,0.000000
6.2325,0.025075
6.2350,0.015287
6.2375,0.000306
6.2400,0.000000
6.2425,0.017577
6.2450,0.000726
6.2475,0.013852
6.2500,0.026555
6.2525,0.019513
6.2550,0.017448
6.2575,0.015459
6.2600,0.014214
6.2625,0.002517
6.2650,0.000000
6.2675,0.013338
6.2700,0.000000
6.2725,0.026101
6.2750,0.007973
6.2775,0.005753
6.2800,0.007490
6.2825,0.025662
6.2850,0.000000
6.2875,0.001483
6.2900,0.021497
6.2925,0.018907
6.2950,0.000000
6.2975,0.024118
6.3000,0.000000
6.3025,0.016489
6.3050,0.006771
6.3075,0.015334
6.3100,0.003131
6.3125,0.000000
6.3150,0.005650
6.3175,0.008515
6.3200,0.005852
6.3225,0.017976
6.3250,0.005554
6.3275,0.001916
6.3300,0.037062
6.3325,0.009989
6.3350,0.000000
6.3375,0.009179
6.3400,0.001951
6.3425,0.000000
6.3450,0.000000
6.3475,0.000000
6.3500,0.024072
6.3525,0.010501
6.3550,0.005800
6.3575,0.000000
6.3600,0.014477
6.3625,0.004597
6.3650,0.016498
6.3675,0.016461
6.3700,0.000000
6.3725,0.000000
6.3750,0.006618
6.3775,0.000000
6.3800,0.006859
6.3825,0.000000
6.3850,0.029032
6.3875,0.013800
6.3900,0.011755
6.3925,0.016501
6.3950,0.029585
6.3975,0.012296
6.4000,0.018367
6.4025,0.003770
6.4050,0.010211
6.4075,0.014369
6.4100,0.000000
6.4125,0.152654
6.4150,0.144421
6.4175,0.172359
6.4200,0.182372
6.4225,0.253236
6.4250,0.251035
6.4275,0.278980
6.4300,0.338517
6.4325,0.404172
6.4350,0.394388
6.4375,0.442893
6.4400,0.502861
6.4425,0.529658
6.4450,0.596888
6.4475,0.645473
6.4500,0.714837
6.4525,0.744198
6.4550,0.774364
6.4575,0.815441
6.4600,0.874777
6.4625,0.910034
6.4650,0.909598
6.4675,0.962700
6.4700,1.005315
6.4725,0.963862
6.4750,0.990154
6.4775,1.008631
6.4800,1.008527
6.4825,1.015806
6.4850,0.962199
6.4875,0.973429
6.4900,0.948552
6.4925,0.899741
6.4950,0.869220
6.4975,0.819500
6.5000,0.769280
6.5025,0.735627
6.5050,0.667540
6.5075,0.654647
6.5100,0.602879
6.5125,0.551893
6.5150,0.499435
6.5175,0.448419
6.5200,0.395217
6.5225,0.346335
6.5250,0.293933
6.5275,0.262755
6.5300,0.218997
6.5325,0.204699
6.5350,0.161453
6.5375,0.108391
6.5400,0.110455
6.5425,0.076474
6.5450,0.065605
6.5475,0.075442
6.5500,0.045021
6.5525,0.073360
6.5550,0.131103
6.5575,0.113908
6.5600,0.127560
6.5625,0.147412
6.5650,0.146382
6.5675,0.162710
6.5700,0.192172
6.5725,0.235735
6.5750,0.234223
6.5775,0.281769
6.5800,0.263427
6.5825,0.318480
6.5850,0.291984
6.5875,0.265664
6.5900,0.278299
6.5925,0.275218
6.5950,0.257579
6.5975,0.290929
6.6000,0.280223
6.6025,0.252457
6.6050,0.255535
6.6075,0.231319
6.6100,0.217376
6.6125,0.208989
6.6150,0.181279
6.6175,0.208283
6.6200,0.199298
6.6225,0.139107
6.6250,0.149404
6.6275,0.128248
6.6300,0.090393
6.6325,0.100179
6.6350,0.061305
6.6375,0.072072
6.6400,0.036037
6.6425,0.050907
6.6450,0.029301
6.6475,0.044244
6.6500,0.039282
6.6525,0.028509
6.6550,0.035314
6.6575,0.029765
6.6600,0.025634
6.6625,0.000000
6.6650,0.000690
6.6675,0.024803
6.6700,0.000000
6.6725,0.015772
6.6750,0.013641
6.6775,0.026887
6.6800,0.005328
6.6825,0.004158
6.6850,0.000000
6.6875,0.011300
6.6900,0.014625
6.6925,0.000000
6.6950,0.003588
6.6975,0.001301
6.7000,0.019542
6.7025,0.003416
6.7050,0.019147
6.7075,0.000000
6.7100,0.000000
6.7125,0.000000
6.7150,0.000000
6.7175,0.011910
6.7200,0.017673
6.7225,0.000000
6.7250,0.025833
6.7275,0.000000
6.7300,0.000000
6.7325,0.030690
6.7350,0.000000
6.7375,0.012058
6.7400,0.000000
6.7425,0.019659
6.7450,0.016440
6.7475,0.023836
6.7500,0.010372
6.7525,0.000000
6.7550,0.000842
6.7575,0.014480
6.7600,0.000143
6.7625,0.011010
6.7650,0.000000
6.7675,0.012405
6.7700,0.000000
6.7725,0.001345
6.7750,0.013335
6.7775,0.000000
6.7800,0.034961
6.7825,0.001220
6.7850,0.000000
6.7875,0.000000
6.7900,0.003600
6.7925,0.000000
6.7950,0.000000
6.7975,0.000000
6.8000,0.013713
6.8025,0.000000
6.8050,0.006670
6.8075,0.000000
6.8100,0.012814
6.8125,0.006848
6.8150,0.018801
6.8175,0.000000
6.8200,0.000154
6.8225,0.009137
6.8250,0.019695
6.8275,0.021104
6.8300,0.011628
6.8325,0.011251
6.8350,0.016855
6.8375,0.009233
6.8400,0.000000
6.8425,0.000000
6.8450,0.000000
6.8475,0.000000
6.8500,0.011393
6.8525,0.008135
6.8550,0.002921
6.8575,0.000000
6.8600,0.018404
6.8625,0.006065
6.8650,0.000000
6.8675,0.000000
6.8700,0.034941
6.8725,0.000000
6.8750,0.024697
6.8775,0.000000
6.8800,0.000000
6.8825,0.000000
6.8850,0.000000
6.8875,0.000183
6.8900,0.000000
6.8925,0.027895
6.8950,0.007572
6.8975,0.011976
6.9000,0.015740
6.9025,0.000000
6.9050,0.010989
6.9075,0.012309
6.9100,0.015587
6.9125,0.011719
6.9150,0.019581
6.9175,0.007105
6.9200,0.000000
6.9225,0.006467
6.9250,0.000000
6.9275,0.017825
6.9300,0.026635
6.9325,0.005186
6.9350,0.007241
6.9375,0.009469
6.9400,0.009727
6.9425,0.000000
6.9450,0.007078
6.9475,0.013694
6.9500,0.018082
6.9525,0.018393
6.9550,0.018979
6.9575,0.013106
6.9600,0.009202
6.9625,0.000000
6.9650,0.016601
6.9675,0.000000
6.9700,0.018484
6.9725,0.000000
6.9750,0.009424
6.9775,0.000000
6.9800,0.019018
6.9825,0.010975
6.9850,0.000000
6.9875,0.010302
6.9900,0.005313
6.9925,0.008391
6.9950,0.014891
6.9975,0.006116
7.0000,0.000211
7.0025,0.011856
7.0050,0.007230
7.0075,0.015423
7.0100,0.009549
7.0125,0.022822
7.0150,0.000000
7.0175,0.017403
7.0200,0.005958
7.0225,0.015270
7.0250,0.000000
7.0275,0.000000
7.0300,0.010917
7.0325,0.020259
7.0350,0.017017
7.0375,0.012174
7.0400,0.000000
7.0425,0.000000
7.0450,0.000000
7.0475,0.000000
7.0500,0.000000
7.0525,0.030499
7.0550,0.000000
7.0575,0.000000
7.0600,0.012636
7.0625,0.011637
7.0650,0.000000
7.0675,0.008362
7.0700,0.018100
7.0725,0.011132
7.0750,0.029393
7.0775,0.000000
7.0800,0.008841
7.0825,0.000000
7.0850,0.012142
7.0875,0.003134
7.0900,0.016895
7.0925,0.000000
7.0950,0.005902
7.0975,0.000000
7.1000,0.025355
7.1025,0.008701
7.1050,0.019468
7.1075,0.000000
7.1100,0.000000
7.1125,0.030493
7.1150,0.000000
7.1175,0.008275
7.1200,0.014488
7.1225,0.000000
7.1250,0.010338
7.1275,0.000454
7.1300,0.023621
7.1325,0.000000
7.1350,0.003159
7.1375,0.012030
7.1400,0.004641
7.1425,0.000000
7.1450,0.024637
7.1475,0.029253
7.1500,0.000000
7.1525,0.003063
7.1550,0.019391
7.1575,0.001841
7.1600,0.005214
7.1625,0.008023
7.1650,0.000000
7.1675,0.011363
7.1700,0.000000
7.1725,0.007220
7.1750,0.002705
7.1775,0.000000
7.1800,0.035240
7.1825,0.000000
7.1850,0.017627
7.1875,0.032569
7.1900,0.003142
7.1925,0.009304
7.1950,0.012293
7.1975,0.019056
7.2000,0.001606
7.2025,0.004044
7.2050,0.010666
7.2075,0.017803
7.2100,0.003356
7.2125,0.000000
7.2150,0.153681
7.2175,0.157593
7.2200,0.195125
7.2225,0.207111
7.2250,0.280501
7.2275,0.274810
7.2300,0.345845
7.2325,0.375222
7.2350,0.409630
7.2375,0.449477
7.2400,0.493672
7.2425,0.543036
7.2450,0.626832
7.2475,0.662920
7.2500,0.668182
7.2525,0.764614
7.2550,0.779247
7.2575,0.839898
7.2600,0.851580
7.2625,0.886602
7.2650,0.926451
7.2675,0.949958
7.2700,0.977578
7.2725,0.982449
7.2750,0.995761
7.2775,1.005215
7.2800,0.986056
7.2825,0.998863
7.2850,0.973569
7.2875,0.935187
7.2900,0.923176
7.2925,0.893663
7.2950,0.881555
7.2975,0.797701
7.3000,0.756568
7.3025,0.745582
7.3050,0.709703
7.3075,0.629573
7.3100,0.581358
7.3125,0.524175
7.3150,0.486920
7.3175,0.450461
7.3200,0.383091
7.3225,0.378205
7.3250,0.319338
7.3275,0.261005
7.3300,0.208369
7.3325,0.221726
7.3350,0.142438
7.3375,0.146736
7.3400,0.099040
7.3425,0.097386
7.3450,0.070372
7.3475,0.056150
7.3500,0.085373
7.3525,0.102377
7.3550,0.101356
7.3575,0.108741
7.3600,0.113778
7.3625,0.134098
7.3650,0.177802
7.3675,0.211505
7.3700,0.224134
7.3725,0.222342
7.3750,0.254436
7.3775,0.278523
7.3800,0.268495
7.3825,0.254787
7.3850,0.256022
7.3875,0.292147
7.3900,0.290549
7.3925,0.300882
7.3950,0.300865
7.3975,0.277765
7.4000,0.257155
7.4025,0.246841
7.4050,0.284331
7.4075,0.226583
7.4100,0.194141
7.4125,0.208527
7.4150,0.220670
7.4175,0.173594
7.4200,0.140406
7.4225,0.142134
7.4250,0.128761
7.4275,0.102369
7.4300,0.118947
7.4325,0.099274
7.4350,0.077259
7.4375,0.101992
7.4400,0.080434
7.4425,0.052745
7.4450,0.046202
7.4475,0.043781
7.4500,0.017441
7.4525,0.021201
7.4550,0.023209
7.4575,0.005658
7.4600,0.006721
7.4625,0.000000
7.4650,0.000000
7.4675,0.000396
7.4700,0.000000
7.4725,0.002821
7.4750,0.000000
7.4775,0.002851
7.4800,0.001868
7.4825,0.000081
7.4850,0.013473
7.4875,0.034790
7.4900,0.006358
7.4925,0.000000
7.4950,0.003491
7.4975,0.000000
7.5000,0.008917
7.5025,0.006633
7.5050,0.000000
7.5075,0.014393
7.5100,0.025120
7.5125,0.007206
7.5150,0.000000
7.5175,0.000000
7.5200,0.027622
7.5225,0.000000
7.5250,0.000000
7.5275,0.000000
7.5300,0.000000
7.5325,0.000000
7.5350,0.000000
7.5375,0.000000
7.5400,0.020610
7.5425,0.000000
7.5450,0.000000
7.5475,0.007733
7.5500,0.018012
7.5525,0.012094
7.5550,0.000000
7.5575,0.000000
7.5600,0.030461
7.5625,0.022498
7.5650,0.008550
7.5675,0.000000
7.5700,0.010711
7.5725,0.000000
7.5750,0.025410
7.5775,0.000000
7.5800,0.009333
7.5825,0.001796
7.5850,0.000000
7.5875,0.001812
7.5900,0.007583
7.5925,0.024592
7.5950,0.033220
7.5975,0.000000
7.6000,0.018520
7.6025,0.026594
7.6050,0.000000
7.6075,0.000000
7.6100,0.014420
7.6125,0.000000
7.6150,0.001475
7.6175,0.000000
7.6200,0.028010
7.6225,0.008007
7.6250,0.000000
7.6275,0.000000
7.6300,0.010888
7.6325,0.006812
7.6350,0.008070
7.6375,0.008151
7.6400,0.000000
7.6425,0.002225
7.6450,0.000000
7.6475,0.000000
7.6500,0.008538
7.6525,0.020596
7.6550,0.009611
7.6575,0.010945
7.6600,0.009970
7.6625,0.018158
7.6650,0.005471
7.6675,0.023986
7.6700,0.018804
7.6725,0.000000
7.6750,0.019518
7.6775,0.025853
7.6800,0.007497
7.6825,0.000000
7.6850,0.017753
7.6875,0.024224
7.6900,0.017717
7.6925,0.000569
7.6950,0.015021
7.6975,0.000000
7.7000,0.018818
7.7025,0.000000
7.7050,0.017919
7.7075,0.026351
7.7100,0.000000
7.7125,0.000000
7.7150,0.021603
7.7175,0.000000
7.7200,0.025090
7.7225,0.031150
7.7250,0.017334
7.7275,0.000000
7.7300,0.006641
7.7325,0.000000
7.7350,0.000000
7.7375,0.000000
7.7400,0.000000
7.7425,0.000000
7.7450,0.000000
7.7475,0.013846
7.7500,0.000000
7.7525,0.001380
7.7550,0.016152
7.7575,0.010386
7.7600,0.008359
7.7625,0.009799
7.7650,0.000000
7.7675,0.001450
7.7700,0.000000
7.7725,0.008912
7.7750,0.011383
7.7775,0.000464
7.7800,0.000000
7.7825,0.013171
7.7850,0.000000
7.7875,0.022298
7.7900,0.000000
7.7925,0.006149
7.7950,0.009264
7.7975,0.001958
7.8000,0.027314
7.8025,0.000000
7.8050,0.010550
7.8075,0.014466
7.8100,0.004549
7.8125,0.015658
7.8150,0.024517
7.8175,0.000000
7.8200,0.006610
7.8225,0.019767
7.8250,0.000000
7.8275,0.013631
7.8300,0.000000
7.8325,0.000000
7.8350,0.000000
7.8375,0.012282
7.8400,0.033932
7.8425,0.000000
7.8450,0.008104
7.8475,0.000000
7.8500,0.000000
7.8525,0.019592
7.8550,0.000000
7.8575,0.000000
7.8600,0.000000
7.8625,0.005225
7.8650,0.004529
7.8675,0.000000
7.8700,0.027924
7.8725,0.012192
7.8750,0.012195
7.8775,0.000000
7.8800,0.000000
7.8825,0.016412
7.8850,0.000000
7.8875,0.037694
7.8900,0.016724
7.8925,0.006345
7.8950,0.015431
7.8975,0.002006
7.9000,0.009300
7.9025,0.000000
7.9050,0.000000
7.9075,0.003093
7.9100,0.000000
7.9125,0.002680
7.9150,0.009847
7.9175,0.022269
7.9200,0.018513
7.9225,0.013167
7.9250,0.000000
7.9275,0.002635
7.9300,0.000000
7.9325,0.000000
7.9350,0.000000
7.9375,0.000000
7.9400,0.004937
7.9425,0.000577
7.9450,0.004952
7.9475,0.025534
7.9500,0.029780
7.9525,0.000000
7.9550,0.000000
7.9575,0.010329
7.9600,0.021330
7.9625,0.000000
7.9650,0.038473
7.9675,0.007428
7.9700,0.000000
7.9725,0.007913
7.9750,0.000000
7.9775,0.012759
7.9800,0.004800
7.9825,0.000000
7.9850,0.000000
7.9875,0.000000
7.9900,0.006450
7.9925,0.009109
7.9950,0.021989
7.9975,0.000000
8.0000,0.010507
8.0025,0.014275
8.0050,0.000000
8.0075,0.004801
8.0100,0.000000
8.0125,0.019011
8.0150,0.129887
8.0175,0.183866
8.0200,0.179136
8.0225,0.204091
8.0250,0.230025
8.0275,0.282336
8.0300,0.362467
8.0325,0.385267
8.0350,0.427267
8.0375,0.450754
8.0400,0.534783
8.0425,0.542391
8.0450,0.608222
8.0475,0.617897
8.0500,0.673305
8.0525,0.716580
8.0550,0.808851
8.0575,0.812073
8.0600,0.879602
8.0625,0.906394
8.0650,0.943015
8.0675,0.949965
8.0700,0.955971
8.0725,0.969521
8.0750,1.015287
8.0775,1.001920
8.0800,0.997600
8.0825,1.016764
8.0850,0.989784
8.0875,0.954283
8.0900,0.950164
8.0925,0.897378
8.0950,0.883880
8.0975,0.827802
8.1000,0.762536
8.1025,0.736378
8.1050,0.698723
8.1075,0.655803
8.1100,0.610304
8.1125,0.531935
8.1150,0.487348
8.1175,0.455554
8.1200,0.396189
8.1225,0.351285
8.1250,0.310485
8.1275,0.273897
8.1300,0.218188
8.1325,0.184290
8.1350,0.146188
8.1375,0.138654
8.1400,0.081265
8.1425,0.094253
8.1450,0.076643
8.1475,0.044217
8.1500,0.068023
8.1525,0.091363
8.1550,0.071071
8.1575,0.107057
8.1600,0.123928
8.1625,0.105861
8.1650,0.163365
8.1675,0.189744
8.1700,0.172123
8.1725,0.227729
8.1750,0.237687
8.1775,0.248034
8.1800,0.249661
8.1825,0.299671
8.1850,0.263715
8.1875,0.279541
8.1900,0.304435
8.1925,0.268506
8.1950,0.277636
8.1975,0.306011
8.2000,0.264231
8.2025,0.247671
8.2050,0.243164
8.2075,0.223599
8.2100,0.230025
8.2125,0.237587
8.2150,0.190873
8.2175,0.208346
8.2200,0.167577
8.2225,0.163851
8.2250,0.141423
8.2275,0.108458
8.2300,0.135973
8.2325,0.079824
8.2350,0.068225
8.2375,0.088753
8.2400,0.048684
8.2425,0.059898
8.2450,0.036544
8.2475,0.034877
8.2500,0.045306
8.2525,0.031658
8.2550,0.017189
8.2575,0.025169
8.2600,0.000000
8.2625,0.033964
8.2650,0.000000
8.2675,0.016325
8.2700,0.021883
8.2725,0.026601
8.2750,0.009651
8.2775,0.008586
8.2800,0.008065
8.2825,0.000000
8.2850,0.009760
8.2875,0.000000
8.2900,0.003462
8.2925,0.000000
8.2950,0.005351
8.2975,0.000000
8.3000,0.006777
8.3025,0.035973
8.3050,0.007978
8.3075,0.000000
8.3100,0.000000
8.3125,0.023969
8.3150,0.006986
8.3175,0.007002
8.3200,0.001176
8.3225,0.000000
8.3250,0.014192
8.3275,0.000000
8.3300,0.007782
8.3325,0.000000
8.3350,0.005975
8.3375,0.017771
8.3400,0.031905
8.3425,0.023169
8.3450,0.014354
8.3475,0.000000
8.3500,0.019631
8.3525,0.019750
8.3550,0.027047
8.3575,0.005806
8.3600,0.000000
8.3625,0.000000
8.3650,0.000000
8.3675,0.000000
8.3700,0.022823
8.3725,0.018766
8.3750,0.000000
8.3775,0.000000
8.3800,0.012635
8.3825,0.006308
8.3850,0.000000
8.3875,0.000000
8.3900,0.000000
8.3925,0.017215
8.3950,0.019842
8.3975,0.006175
8.4000,0.008938
8.4025,0.000000
8.4050,0.000000
8.4075,0.001954
8.4100,0.000626
8.4125,0.005738
8.4150,0.013564
8.4175,0.000000
8.4200,0.004229
8.4225,0.018721
8.4250,0.000415
8.4275,0.000000
8.4300,0.014254
8.4325,0.012829
8.4350,0.013157
8.4375,0.000000
8.4400,0.000000
8.4425,0.000000
8.4450,0.020516
8.4475,0.000000
8.4500,0.000815
8.4525,0.000000
8.4550,0.000000
8.4575,0.000000
8.4600,0.026433
8.4625,0.012224
8.4650,0.007377
8.4675,0.017147
8.4700,0.000000
8.4725,0.004547
8.4750,0.000000
8.4775,0.008965
8.4800,0.037001
8.4825,0.010884
8.4850,0.025004
8.4875,0.006149
8.4900,0.000000
8.4925,0.025289
8.4950,0.011136
8.4975,0.010482
8.5000,0.013206
8.5025,0.028436
8.5050,0.003531
8.5075,0.000000
8.5100,0.000000
8.5125,0.000951
8.5150,0.000000
8.5175,0.018396
8.5200,0.008003
8.5225,0.023214
8.5250,0.005839
8.5275,0.008354
8.5300,0.020452
8.5325,0.008193
8.5350,0.000000
8.5375,0.010458
8.5400,0.002732
8.5425,0.003435
8.5450,0.022476
8.5475,0.011626
8.5500,0.016192
8.5525,0.000000
8.5550,0.014782
8.5575,0.010111
8.5600,0.016807
8.5625,0.005795
8.5650,0.013166
8.5675,0.003364
8.5700,0.009808
8.5725,0.006648
8.5750,0.019208
8.5775,0.020994
8.5800,0.007409
8.5825,0.022371
8.5850,0.035841
8.5875,0.014189
8.5900,0.015434
8.5925,0.000000
8.5950,0.011405
8.5975,0.002029
8.6000,0.000000
8.6025,0.019548
8.6050,0.000000
8.6075,0.000000
8.6100,0.000000
8.6125,0.013400
8.6150,0.018622
8.6175,0.000000
8.6200,0.000000
8.6225,0.004936
8.6250,0.000000
8.6275,0.004238
8.6300,0.000000
8.6325,0.017570
8.6350,0.003200
8.6375,0.012576
8.6400,0.010066
8.6425,0.000000
8.6450,0.019757
8.6475,0.002937
8.6500,0.000000
8.6525,0.000000
8.6550,0.023054
8.6575,0.000000
8.6600,0.002910
8.6625,0.000377
8.6650,0.007040
8.6675,0.000000
8.6700,0.016420
8.6725,0.000000
8.6750,0.000000
8.6775,0.010152
8.6800,0.000000
8.6825,0.029918
8.6850,0.017393
8.6875,0.029886
8.6900,0.017702
8.6925,0.008242
8.6950,0.000000
8.6975,0.018544
8.7000,0.007655
8.7025,0.011715
8.7050,0.007918
8.7075,0.000000
8.7100,0.004774
8.7125,0.003886
8.7150,0.012227
8.7175,0.000000
8.7200,0.000000
8.7225,0.003206
8.7250,0.010474
8.7275,0.020855
8.7300,0.000000
8.7325,0.000000
8.7350,0.000000
8.7375,0.000000
8.7400,0.007065
8.7425,0.011730
8.7450,0.016578
8.7475,0.000000
8.7500,0.000000
8.7525,0.004592
8.7550,0.000765
8.7575,0.000000
8.7600,0.000000
8.7625,0.000000
8.7650,0.013153
8.7675,0.013638
8.7700,0.020589
8.7725,0.028643
8.7750,0.000000
8.7775,0.001607
8.7800,0.000000
8.7825,0.000000
8.7850,0.002599
8.7875,0.010618
8.7900,0.008817
8.7925,0.020761
8.7950,0.011215
8.7975,0.000000
8.8000,0.011643
8.8025,0.011674
8.8050,0.012975
8.8075,0.001453
8.8100,0.004037
8.8125,0.103828
8.8150,0.173507
8.8175,0.189772
8.8200,0.198621
8.8225,0.211520
8.8250,0.237580
8.8275,0.287647
8.8300,0.350101
8.8325,0.389148
8.8350,0.422768
8.8375,0.440316
8.8400,0.525411
8.8425,0.550064
8.8450,0.594026
8.8475,0.631502
8.8500,0.686918
8.8525,0.729945
8.8550,0.753640
8.8575,0.820561
8.8600,0.853060
8.8625,0.886749
8.8650,0.927255
8.8675,0.938814
8.8700,0.972214
8.8725,0.989923
8.8750,0.974198
8.8775,0.982341
8.8800,0.972369
8.8825,1.001853
8.8850,0.973815
8.8875,0.981812
8.8900,0.936230
8.8925,0.910733
8.8950,0.876666
8.8975,0.828395
8.9000,0.791402
8.9025,0.775356
8.9050,0.672568
8.9075,0.659428
8.9100,0.591434
8.9125,0.510018
8.9150,0.496185
8.9175,0.437292
8.9200,0.393725
8.9225,0.347918
8.9250,0.300346
8.9275,0.282525
8.9300,0.225171
8.9325,0.202235
8.9350,0.163173
8.9375,0.112747
8.9400,0.091349
8.9425,0.124421
8.9450,0.072389
8.9475,0.075737
8.9500,0.084696
8.9525,0.085163
8.9550,0.105725
8.9575,0.072445
8.9600,0.107227
8.9625,0.135049
8.9650,0.166039
8.9675,0.188526
8.9700,0.202867
8.9725,0.231739
8.9750,0.204445
8.9775,0.248898
8.9800,0.271150
8.9825,0.260471
8.9850,0.293033
8.9875,0.293944
8.9900,0.281678
8.9925,0.292937
8.9950,0.283365
8.9975,0.289262
9.0000,0.280670
9.0025,0.277290
9.0050,0.225009
9.0075,0.263462
9.0100,0.201744
9.0125,0.226011
9.0150,0.222357
9.0175,0.161128
9.0200,0.135029
9.0225,0.161602
9.0250,0.155355
9.0275,0.122606
9.0300,0.093191
9.0325,0.106673
9.0350,0.079669
9.0375,0.055947
9.0400,0.070008
9.0425,0.044704
9.0450,0.043292
9.0475,0.008623
9.0500,0.029594
9.0525,0.059722
9.0550,0.017724
9.0575,0.006891
9.0600,0.000000
9.0625,0.021859
9.0650,0.000301
9.0675,0.028962
9.0700,0.032855
9.0725,0.024527
9.0750,0.000000
9.0775,0.000000
9.0800,0.007623
9.0825,0.019312
9.0850,0.006209
9.0875,0.000000
9.0900,0.000000
9.0925,0.000000
9.0950,0.006818
9.0975,0.016896
9.1000,0.010822
9.1025,0.014082
9.1050,0.016890
9.1075,0.023485
9.1100,0.000000
9.1125,0.000000
9.1150,0.007639
9.1175,0.000000
9.1200,0.000000
9.1225,0.000000
9.1250,0.013421
9.1275,0.015547
9.1300,0.009482
9.1325,0.002554
9.1350,0.000000
9.1375,0.000000
9.1400,0.000000
9.1425,0.007630
9.1450,0.002151
9.1475,0.001256
9.1500,0.018236
9.1525,0.000000
9.1550,0.000000
9.1575,0.000000
9.1600,0.000000
9.1625,0.000000
9.1650,0.026153
9.1675,0.017075
9.1700,0.018116
9.1725,0.008446
9.1750,0.000000
9.1775,0.008545
9.1800,0.010506
9.1825,0.022772
9.1850,0.000000
9.1875,0.018146
9.1900,0.023701
9.1925,0.000000
9.1950,0.028040
9.1975,0.005987
9.2000,0.007290
9.2025,0.019709
9.2050,0.028194
9.2075,0.000000
9.2100,0.000000
9.2125,0.003043
9.2150,0.033833
9.2175,0.014529
9.2200,0.016739
9.2225,0.000000
9.2250,0.001221
9.2275,0.000000
9.2300,0.016586
9.2325,0.010508
9.2350,0.020891
9.2375,0.000000
9.2400,0.032350
9.2425,0.000000
9.2450,0.000000
9.2475,0.000000
9.2500,0.004945
9.2525,0.000000
9.2550,0.021809
9.2575,0.020070
9.2600,0.020441
9.2625,0.009368
9.2650,0.025946
9.2675,0.005708
9.2700,0.000800
9.2725,0.002537
9.2750,0.000000
9.2775,0.004740
9.2800,0.019343
9.2825,0.008331
9.2850,0.026554
9.2875,0.000000
9.2900,0.004333
9.2925,0.012149
9.2950,0.008497
9.2975,0.010515
9.3000,0.019938
9.3025,0.000000
9.3050,0.031520
9.3075,0.000000
9.3100,0.026932
9.3125,0.000000
9.3150,0.000000
9.3175,0.010405
9.3200,0.016008
9.3225,0.005003
9.3250,0.001601
9.3275,0.025788
9.3300,0.000000
9.3325,0.008908
9.3350,0.005037
9.3375,0.000000
9.3400,0.000000
9.3425,0.024206
9.3450,0.000000
9.3475,0.019597
9.3500,0.000000
9.3525,0.008436
9.3550,0.018437
9.3575,0.009773
9.3600,0.025141
9.3625,0.015413
9.3650,0.010811
9.3675,0.017458
9.3700,0.000000
9.3725,0.008871
9.3750,0.005034
9.3775,0.011428
9.3800,0.005637
9.3825,0.000000
9.3850,0.000000
9.3875,0.000000
9.3900,0.000000
9.3925,0.003223
9.3950,0.004590
9.3975,0.016858
9.4000,0.000000
9.4025,0.000000
9.4050,0.013858
9.4075,0.003923
9.4100,0.000000
9.4125,0.000000
9.4150,0.000101
9.4175,0.000000
9.4200,0.000000
9.4225,0.000601
9.4250,0.023239
9.4275,0.035954
9.4300,0.000000
9.4325,0.000000
9.4350,0.000000
9.4375,0.006334
9.4400,0.013557
9.4425,0.000000
9.4450,0.000000
9.4475,0.005876
9.4500,0.006187
9.4525,0.005679
9.4550,0.000264
9.4575,0.009987
9.4600,0.000000
9.4625,0.005146
9.4650,0.001956
9.4675,0.000000
9.4700,0.000000
9.4725,0.003583
9.4750,0.000972
9.4775,0.023472
9.4800,0.000000
9.4825,0.000000
9.4850,0.017668
9.4875,0.000000
9.4900,0.000000
9.4925,0.023410
9.4950,0.031876
9.4975,0.015189
9.5000,0.006873
9.5025,0.000000
9.5050,0.000000
9.5075,0.002377
9.5100,0.018500
9.5125,0.032978
9.5150,0.000000
9.5175,0.006247
9.5200,0.000000
9.5225,0.019996
9.5250,0.015694
9.5275,0.002317
9.5300,0.000000
9.5325,0.015296
9.5350,0.000000
9.5375,0.016043
9.5400,0.018090
9.5425,0.014250
9.5450,0.000000
9.5475,0.016532
9.5500,0.011490
9.5525,0.033622
9.5550,0.018022
9.5575,0.007310
9.5600,0.006568
9.5625,0.001994
9.5650,0.000000
9.5675,0.000000
9.5700,0.003742
9.5725,0.000808
9.5750,0.018386
9.5775,0.000000
9.5800,0.017181
9.5825,0.025937
9.5850,0.000000
9.5875,0.002085
9.5900,0.012009
9.5925,0.009098
9.5950,0.000000
9.5975,0.000000
9.6000,0.024500
9.6025,0.000000
9.6050,0.014402
9.6075,0.003854
9.6100,0.011418
9.6125,0.008350
9.6150,0.145008
9.6175,0.193907
9.6200,0.197801
9.6225,0.236743
9.6250,0.241132
9.6275,0.276841
9.6300,0.310465
9.6325,0.381711
9.6350,0.411599
9.6375,0.451758
9.6400,0.524776
9.6425,0.548400
9.6450,0.597217
9.6475,0.624828
9.6500,0.705745
9.6525,0.734547
9.6550,0.784088
9.6575,0.833957
9.6600,0.826170
9.6625,0.905016
9.6650,0.927140
9.6675,0.972600
9.6700,0.978024
9.6725,0.988496
9.6750,0.997965
9.6775,1.010070
9.6800,0.999589
9.6825,1.006472
9.6850,0.968627
9.6875,0.968866
9.6900,0.908091
9.6925,0.893569
9.6950,0.900384
9.6975,0.798073
9.7000,0.807384
9.7025,0.729859
9.7050,0.709209
9.7075,0.646545
9.7100,0.586467
9.7125,0.553265
9.7150,0.468900
9.7175,0.449269
9.7200,0.414922
9.7225,0.330450
9.7250,0.321888
9.7275,0.267984
9.7300,0.206038
9.7325,0.185402
9.7350,0.143860
9.7375,0.137606
9.7400,0.083510
9.7425,0.085230
9.7450,0.045578
9.7475,0.066801
9.7500,0.067107
9.7525,0.088621
9.7550,0.110778
9.7575,0.088504
9.7600,0.132901
9.7625,0.133999
9.7650,0.168793
9.7675,0.178942
9.7700,0.203079
9.7725,0.214213
9.7750,0.255181
9.7775,0.259709
9.7800,0.277176
9.7825,0.304533
9.7850,0.281941
9.7875,0.321447
9.7900,0.303997
9.7925,0.289018
9.7950,0.293521
9.7975,0.261108
9.8000,0.245688
9.8025,0.278041
9.8050,0.282836
9.8075,0.267265
9.8100,0.226019
9.8125,0.223644
9.8150,0.165589
9.8175,0.200536
9.8200,0.136978
9.8225,0.172731
9.8250,0.138527
9.8275,0.120910
9.8300,0.102320
9.8325,0.084663
9.8350,0.117065
9.8375,0.067169
9.8400,0.073622
9.8425,0.059511
9.8450,0.029417
9.8475,0.036113
9.8500,0.037023
9.8525,0.025235
9.8550,0.025284
9.8575,0.000000
9.8600,0.027993
9.8625,0.010749
9.8650,0.015779
9.8675,0.000000
9.8700,0.000000
9.8725,0.010589
9.8750,0.000000
9.8775,0.003739
9.8800,0.033459
9.8825,0.010197
9.8850,0.033244
9.8875,0.022806
9.8900,0.018155
9.8925,0.000000
9.8950,0.021723
9.8975,0.008939
9.9000,0.008392
9.9025,0.015200
9.9050,0.026611
9.9075,0.016987
9.9100,0.000000
9.9125,0.015684
9.9150,0.008943
9.9175,0.000000
9.9200,0.028354
9.9225,0.002994
9.9250,0.000000
9.9275,0.008823
9.9300,0.009124
9.9325,0.000000
9.9350,0.000000
9.9375,0.007812
9.9400,0.000000
9.9425,0.002429
9.9450,0.033135
9.9475,0.016909
9.9500,0.000000
9.9525,0.000000
9.9550,0.000000
9.9575,0.015351
9.9600,0.020330
9.9625,0.000000
9.9650,0.000000
9.9675,0.031213
9.9700,0.000000
9.9725,0.010958
9.9750,0.014988
9.9775,0.010413
9.9800,0.010804
9.9825,0.000000
9.9850,0.000000
9.9875,0.000000
9.9900,0.000000
9.9925,0.014454
9.9950,0.000000
9.9975,0.010163
