Timestamp (ms),Red PPG ,IR PPG
33933,95974,109032
33942,95986,109018
33953,95996,109056
33963,95999,109071
33973,96011,109075
33983,95999,109074
33992,95983,109083
34003,95994,109102
34013,96006,109129
34023,96017,109132
34032,96015,109122
34043,96016,109148
34053,96019,109170
34063,96010,109178
34073,96015,109204
34083,96035,109196
34093,96020,109186
34103,96014,109182
34113,96016,109195
34122,96026,109218
34133,96037,109228
34143,96029,109231
34153,96031,109244
34163,96049,109259
34173,96059,109281
34183,96040,109299
34193,96064,109306
34203,96060,109322
34212,96068,109321
34223,96077,109357
34233,96094,109358
34243,96063,109372
34253,96086,109408
34263,96080,109392
34273,96067,109402
34283,96062,109409
34293,96070,109403
34303,96097,109432
34313,96115,109486
34323,96106,109512
34333,96110,109506
34343,96103,109529
34353,96106,109529
34363,96128,109548
34373,96125,109521
34383,96102,109466
34393,96058,109406
34403,96039,109336
34413,95982,109241
34423,95952,109118
34433,95919,109006
34443,95870,108892
34453,95833,108786
34463,95788,108720
34473,95766,108621
34483,95737,108576
34493,95717,108539
34503,95711,108510
34513,95696,108491
34523,95686,108486
34533,95691,108466
34543,95673,108456
34553,95670,108442
34563,95679,108479
34573,95675,108465
34583,95681,108472
34593,95680,108497
34603,95679,108490
34613,95691,108497
34623,95688,108522
34633,95678,108538
34643,95690,108542
34653,95701,108559
34663,95699,108591
34673,95698,108608
34683,95696,108611
34693,95689,108609
34703,95686,108606
34713,95685,108595
34723,95700,108585
34733,95688,108563
34743,95666,108569
34753,95672,108541
34763,95675,108555
34773,95664,108561
34783,95668,108549
34793,95661,108530
34803,95667,108540
34813,95653,108568
34823,95671,108565
34833,95657,108574
34844,95665,108578
34853,95671,108608
34863,95673,108627
34873,95671,108625
34883,95685,108634
34893,95689,108648
34903,95682,108676
34913,95702,108686
34923,95704,108711
34933,95702,108720
34943,95711,108738
34953,95715,108761
34963,95733,108778
34974,95744,108822
34983,95735,108809
34993,95747,108838
35003,95744,108838
35013,95759,108880
35023,95766,108878
35033,95776,108907
35043,95787,108928
35053,95780,108934
35064,95790,108954
35073,95782,108941
35083,95782,108965
35093,95789,108971
35103,95776,108972
35114,95801,109016
35123,95808,109000
35133,95809,109030
35143,95808,109015
35154,95817,109046
35163,95821,109071
35173,95829,109091
35183,95822,109095
35193,95829,109112
35204,95825,109123
35213,95841,109141
35223,95846,109160
35233,95828,109150
35244,95842,109169
35253,95864,109185
35263,95860,109219
35273,95878,109220
35284,95870,109209
35294,95869,109195
35303,95841,109125
35313,95806,109069
35323,95788,108987
35334,95735,108873
35343,95697,108729
35353,95653,108627
35363,95595,108512
35374,95554,108421
35384,95531,108311
35393,95490,108258
35403,95488,108216
35414,95484,108221
35424,95475,108187
35433,95466,108186
35443,95479,108187
35453,95466,108183
35464,95445,108181
35473,95472,108187
35483,95451,108185
35493,95441,108195
35504,95467,108201
35514,95473,108226
35523,95461,108225
35533,95465,108260
35543,95468,108276
35554,95480,108310
35563,95501,108338
35573,95506,108355
35583,95501,108387
35594,95505,108387
35604,95511,108393
35613,95514,108378
35623,95506,108378
35634,95489,108358
35644,95487,108349
35653,95503,108360
35663,95492,108357
35673,95505,108367
35684,95492,108357
35694,95488,108363
35703,95495,108356
35713,95511,108382
35724,95496,108380
35734,95481,108381
35744,95508,108381
35753,95480,108397
35763,95502,108430
35774,95512,108434
35784,95530,108472
35793,95526,108488
35803,95540,108515
35814,95549,108533
35824,95551,108548
35834,95553,108555
35843,95552,108568
35854,95566,108593
35864,95568,108598
35874,95583,108615
35883,95561,108624
35893,95592,108672
35904,95590,108659
35914,95592,108697
35924,95595,108708
35933,95597,108713
35944,95638,108753
35954,95607,108772
35964,95620,108772
35973,95639,108787
35983,95624,108787
35994,95639,108793
36004,95623,108814
36014,95641,108810
36023,95653,108820
36034,95646,108837
36044,95656,108850
36054,95651,108879
36063,95683,108896
36074,95669,108916
36084,95667,108915
36094,95661,108925
36104,95680,108912
36113,95689,108925
36124,95657,108965
36134,95691,108984
36144,95702,109014
36153,95704,109015
36164,95704,109039
36174,95719,109051
36184,95712,109071
36194,95719,109087
36203,95716,109100
36214,95742,109146
36224,95746,109127
36234,95753,109142
36243,95757,109184
36254,95749,109183
36264,95762,109191
36274,95731,109132
36284,95706,109074
36294,95667,108984
36304,95634,108867
36314,95601,108734
36324,95547,108576
36333,95494,108440
36344,95444,108301
36354,95387,108171
36364,95353,108046
36374,95303,107966
36384,95282,107878
36394,95234,107837
36404,95221,107782
36414,95218,107759
36423,95218,107721
36434,95206,107716
36444,95192,107726
36454,95180,107718
36464,95199,107721
36474,95197,107740
36484,95180,107715
36494,95162,107715
36504,95164,107719
36514,95183,107713
36524,95173,107728
36534,95169,107737
36544,95182,107759
36554,95193,107786
36564,95197,107810
36574,95198,107834
36584,95215,107856
36594,95212,107874
36604,95223,107866
36614,95231,107869
36624,95210,107861
36634,95188,107849
36644,95203,107846
36654,95199,107827
36664,95191,107833
36674,95204,107826
36684,95200,107816
36694,95178,107816
36704,95187,107813
36714,95190,107828
36724,95195,107827
36734,95209,107864
36744,95204,107866
36754,95196,107892
36764,95226,107919
36774,95227,107918
36784,95223,107936
36794,95245,107995
36804,95235,108027
36814,95265,108041
36824,95274,108030
36834,95266,108053
36844,95270,108084
36854,95286,108115
36864,95289,108133
36874,95287,108134
36884,95296,108162
36894,95312,108210
36904,95300,108211
36914,95319,108221
36924,95344,108228
36934,95335,108259
36944,95315,108254
36954,95321,108283
36964,95349,108282
36974,95350,108281
36984,95346,108308
36994,95354,108334
37004,95370,108374
37014,95393,108375
37024,95382,108390
37034,95371,108399
37044,95387,108431
37055,95393,108453
37064,95397,108447
37074,95410,108466
37084,95406,108487
37094,95414,108504
37104,95421,108514
37114,95419,108514
37124,95420,108543
37134,95421,108563
37145,95445,108588
37154,95468,108619
37164,95475,108646
37174,95450,108646
37184,95454,108646
37194,95460,108659
37204,95483,108691
37214,95490,108721
37224,95487,108708
37235,95483,108711
37244,95485,108702
37254,95453,108680
37264,95446,108592
37275,95400,108487
37284,95379,108348
37294,95310,108217
37304,95259,108068
37314,95194,107893
37325,95151,107774
37334,95098,107626
37344,95060,107539
37354,95034,107470
37365,95008,107412
37374,94973,107354
37384,94981,107323
37394,94942,107340
37404,94948,107315
37415,94958,107322
37424,94962,107315
37434,94939,107339
37444,94942,107333
37455,94957,107358
37464,94955,107329
37474,94948,107346
37484,94944,107369
37495,94950,107382
37505,94973,107429
37514,94999,107457
37524,94995,107486
37534,95001,107516
37545,95017,107546
37554,95041,107563
37564,95032,107582
37574,95015,107582
37585,95005,107574
37595,95023,107580
37604,95000,107563
37614,95011,107528
37624,94996,107513
37635,94980,107512
37644,94994,107508
37654,94975,107524
37664,94987,107535
37675,94999,107543
37685,94985,107550
37694,94999,107557
37704,95001,107583
37715,95018,107586
37725,95019,107605
37734,95032,107625
37744,95018,107638
37754,95026,107687
37765,95027,107677
37775,95041,107695
37784,95047,107734
37794,95057,107764
37805,95077,107801
37815,95096,107820
37824,95090,107816
37834,95099,107867
37844,95105,107887
37855,95088,107894
37865,95112,107925
37874,95122,107933
37884,95139,107952
37895,95139,107992
37905,95134,108002
37914,95157,108030
37924,95161,108033
37935,95155,108060
37945,95151,108044
37955,95163,108070
37964,95173,108058
37974,95170,108084
37985,95182,108100
37995,95186,108099
38004,95191,108108
38014,95188,108121
38025,95178,108138
38035,95196,108156
38045,95184,108176
38054,95206,108199
38065,95229,108224
38075,95217,108234
38085,95235,108251
38094,95255,108269
38104,95250,108278
38115,95246,108306
38125,95245,108320
38135,95264,108330
38144,95275,108344
38155,95279,108336
38165,95245,108273
38175,95217,108206
38184,95199,108089
38194,95132,107966
38205,95088,107832
38215,95042,107693
38225,94981,107546
38234,94937,107419
38245,94894,107336
38255,94885,107253
38265,94868,107211
38274,94836,107150
38285,94827,107158
38295,94829,107163
38305,94830,107162
38315,94835,107165
38324,94829,107184
38335,94829,107198
38345,94840,107212
38355,94847,107228
38364,94843,107238
38375,94857,107263
38385,94860,107286
38395,94860,107301
38405,94869,107310
38415,94886,107337
38425,94865,107359
38435,94881,107378
38445,94898,107387
38454,94897,107412
38465,94894,107404
38475,94889,107412
38485,94897,107401
38495,94888,107409
38505,94908,107406
38515,94886,107402
38525,94888,107374
38535,94881,107378
38545,94899,107380
38555,94883,107378
38565,94878,107381
38575,94867,107386
38584,94882,107371
38595,94878,107403
38605,94910,107432
38615,94892,107450
38625,94891,107482
38635,94923,107508
38645,94936,107566
38655,94950,107585
38665,94962,107605
38674,94957,107636
38685,94975,107660
38695,94984,107715
38705,94988,107719
38715,95002,107738
38725,95020,107774
38735,95028,107816
38745,95040,107848
38755,95053,107866
38765,95054,107871
38775,95067,107927
38785,95058,107946
38795,95070,107969
38805,95094,107986
38815,95086,107989
38825,95074,108006
38835,95105,108050
38845,95093,108048
38855,95116,108075
38865,95129,108081
38875,95131,108115
38885,95129,108116
38895,95144,108141
38905,95151,108141
38915,95152,108175
38925,95155,108201
38935,95151,108213
38945,95161,108201
38955,95149,108245
38965,95177,108243
38975,95177,108258
38985,95186,108285
38995,95201,108327
39005,95230,108338
39015,95221,108354
39025,95214,108393
39035,95245,108397
39045,95226,108401
39055,95213,108389
39065,95208,108295
39075,95137,108179
39085,95099,108054
39095,95050,107900
39105,94996,107706
39115,94924,107516
39125,94858,107346
39135,94807,107215
39145,94755,107093
39155,94728,106985
39165,94690,106916
39175,94670,106850
39185,94634,106805
39195,94629,106786
39205,94622,106771
39216,94614,106751
39225,94600,106752
39235,94600,106728
39245,94594,106756
39255,94602,106717
39265,94576,106719
39275,94578,106742
39285,94599,106736
39295,94590,106765
39306,94598,106772
39315,94595,106789
39325,94609,106834
39335,94619,106853
39346,94625,106883
39355,94639,106892
39365,94653,106924
39375,94628,106931
39385,94634,106923
39395,94646,106923
39405,94635,106917
39415,94621,106891
39425,94617,106897
39436,94628,106900
39445,94630,106911
39455,94641,106933
39465,94638,106919
39475,94632,106933
39486,94632,106938
39495,94628,106954
39505,94642,106966
39515,94647,107002
39526,94666,107032
39535,94686,107061
39545,94689,107103
39555,94703,107132
39566,94711,107161
39575,94723,107204
39585,94733,107212
39595,94759,107260
39605,94744,107281
39616,94774,107304
39625,94770,107312
39635,94767,107349
39645,94787,107384
39656,94802,107416
39665,94808,107434
39675,94809,107456
39685,94829,107496
39696,94837,107535
39706,94858,107541
39715,94860,107557
39725,94849,107581
39735,94863,107599
39746,94850,107629
39755,94908,107632
39765,94896,107655
39775,94891,107677
39786,94920,107665
39796,94900,107711
39805,94910,107728
39815,94922,107760
39825,94942,107796
39836,94947,107832
39845,94951,107853
39855,94976,107868
39865,94962,107868
39876,94961,107890
39886,94962,107902
39895,94998,107936
39905,95007,107969
39916,95008,107985
39926,94990,107982
39935,95008,107950
39945,94985,107893
39955,94955,107780
39966,94881,107638
39976,94840,107493
39985,94786,107318
39995,94713,107171
40006,94641,106998
40016,94585,106855
40025,94571,106736
40035,94518,106683
40046,94503,106616
40056,94504,106582
40066,94483,106546
40075,94485,106534
40085,94477,106554
40096,94459,106537
40106,94455,106531
40115,94440,106504
40125,94446,106514
40136,94442,106542
40146,94449,106535
40156,94463,106554
40165,94467,106558
40175,94466,106605
40186,94462,106621
40196,94473,106672
40205,94504,106676
40215,94498,106731
40226,94518,106798
40236,94549,106819
40246,94569,106852
40255,94579,106871
40265,94554,106879
40276,94556,106875
40286,94561,106860
40295,94558,106851
40305,94566,106865
40316,94543,106867
40326,94547,106840
40336,94547,106849
40345,94553,106847
40356,94547,106858
40366,94547,106871
40376,94546,106896
40385,94572,106934
40395,94580,106949
40406,94598,106998
40416,94606,107021
40426,94614,107042
40435,94610,107056
40446,94647,107121
40456,94633,107123
40466,94630,107151
40476,94655,107181
40485,94666,107206
40496,94679,107256
40506,94676,107271
40516,94692,107300
40525,94717,107318
40536,94695,107352
40546,94728,107375
40556,94742,107399
40566,94743,107398
40575,94735,107412
40586,94762,107441
40596,94742,107433
40606,94737,107444
40615,94748,107454
40626,94755,107477
40636,94755,107507
40646,94773,107532
40656,94793,107519
40666,94795,107546
40676,94808,107609
40686,94817,107612
40696,94819,107640
40705,94840,107656
40716,94845,107697
40726,94844,107703
40736,94850,107728
40746,94873,107719
40756,94852,107693
40766,94832,107669
40776,94804,107589
40786,94764,107482
40796,94745,107349
40806,94677,107212
40816,94633,107043
40826,94568,106903
40836,94528,106787
40846,94496,106691
40856,94466,106633
40866,94429,106560
40876,94419,106515
40886,94414,106508
40896,94401,106483
40906,94395,106462
40916,94385,106463
40926,94391,106464
40936,94376,106470
40946,94407,106479
40956,94397,106492
40966,94357,106495
40976,94386,106506
40986,94383,106515
40996,94400,106567
41006,94404,106596
41016,94420,106638
41026,94449,106708
41036,94459,106770
41046,94480,106792
41056,94488,106824
41066,94515,106841
41076,94510,106869
41086,94498,106874
41096,94522,106878
41106,94500,106876
41116,94501,106869
41126,94500,106884
41136,94516,106903
41146,94525,106907
41156,94517,106909
41166,94522,106940
41176,94535,106952
41186,94528,106955
41196,94551,106993
41206,94562,107016
41216,94561,107043
41226,94570,107066
41236,94583,107100
41246,94612,107128
41256,94618,107142
41266,94590,107176
41276,94608,107182
41286,94632,107235
41296,94666,107268
41306,94671,107295
41316,94665,107326
41326,94676,107371
41336,94693,107377
41346,94702,107413
41356,94704,107440
41366,94704,107462
41376,94727,107468
41386,94735,107492
41396,94749,107528
41406,94735,107543
41416,94744,107561
41426,94749,107570
41436,94766,107610
41446,94769,107615
41456,94783,107630
41466,94794,107652
41476,94807,107669
41486,94810,107701
41496,94814,107715
41506,94813,107719
41516,94814,107718
41526,94806,107755
41536,94832,107784
41546,94831,107806
41557,94854,107842
41566,94864,107832
41576,94856,107859
41586,94867,107866
41596,94854,107812
41606,94845,107765
41616,94798,107676
41626,94763,107552
41636,94689,107429
41647,94665,107286
41656,94612,107169
41666,94553,107056
41676,94538,106961
41686,94499,106898
41697,94486,106841
41706,94454,106797
41716,94462,106799
41726,94451,106791
41737,94425,106776
41746,94450,106773
41756,94466,106787
41766,94446,106792
41776,94431,106794
41787,94448,106823
41796,94456,106821
41806,94463,106851
41816,94445,106865
41827,94463,106884
41836,94490,106936
41846,94501,106983
41856,94516,107017
41866,94519,107043
41877,94545,107080
41886,94535,107106
41896,94543,107103
41906,94527,107098
41917,94524,107105
41926,94533,107082
41936,94542,107099
41946,94524,107087
41957,94522,107083
41967,94520,107109
41976,94534,107090
41986,94541,107127
41996,94543,107124
42007,94506,107118
42016,94540,107134
42026,94530,107141
42036,94549,107190
42047,94556,107187
42057,94558,107195
42066,94564,107250
42076,94573,107266
42086,94576,107293
42097,94582,107331
42107,94606,107343
42116,94613,107356
42126,94615,107379
42137,94601,107392
42147,94638,107388
42156,94628,107396
42166,94623,107428
42176,94622,107426
42187,94628,107444
42197,94658,107461
42206,94661,107484
42216,94656,107519
42227,94649,107517
42237,94672,107565
42246,94700,107569
42256,94681,107578
42267,94709,107585
42277,94696,107604
42287,94702,107615
42296,94699,107609
42306,94708,107641
42317,94706,107659
42327,94721,107697
42336,94739,107707
42346,94740,107742
42357,94746,107748
42367,94757,107765
42377,94760,107783
42386,94762,107804
42396,94763,107795
42407,94734,107746
42417,94716,107697
42426,94716,107605
42436,94675,107537
42447,94628,107421
42457,94560,107288
42467,94530,107184
42476,94512,107078
42487,94466,107003
42497,94427,106919
42507,94414,106857
42516,94383,106818
42526,94371,106800
42537,94366,106798
42547,94360,106765
42557,94350,106771
42566,94335,106745
42577,94328,106749
42587,94329,106735
42597,94323,106739
42606,94322,106735
42616,94341,106774
42627,94333,106797
42637,94350,106820
42647,94373,106847
42656,94368,106873
42667,94374,106919
42677,94388,106946
42687,94402,106964
42696,94408,106969
42706,94392,106974
42717,94392,107009
42727,94400,106999
42737,94422,106999
42746,94420,107006
42757,94397,107006
42767,94405,107001
42777,94410,107033
42787,94428,107038
42797,94417,107057
42807,94418,107072
42817,94428,107070
42827,94435,107095
42836,94438,107092
42847,94454,107134
42857,94450,107146
42867,94452,107179
42877,94456,107204
42887,94479,107219
42897,94477,107239
42907,94474,107243
42917,94492,107274
42927,94517,107301
42937,94521,107328
42947,94519,107345
42957,94529,107362
42966,94538,107399
42977,94539,107414
42987,94563,107435
42997,94573,107462
43007,94568,107480
43017,94582,107508
43027,94590,107541
43037,94604,107556
43047,94608,107569
43057,94605,107579
43067,94608,107607
43077,94630,107637
43087,94631,107653
43097,94630,107655
43107,94628,107671
43117,94635,107707
43127,94670,107716
43137,94694,107766
43147,94680,107755
43157,94690,107797
43167,94694,107818
43177,94703,107822
43187,94719,107858
43197,94717,107865
43207,94737,107898
43217,94737,107929
43227,94740,107938
43237,94759,107964
43247,94752,107968
43257,94755,107982
43267,94754,107972
43277,94751,107970
43287,94759,107934
43297,94745,107887
43307,94698,107813
43317,94661,107702
43327,94639,107582
43337,94570,107472
43347,94532,107364
43357,94471,107249
43367,94453,107162
43377,94433,107099
43387,94402,107040
43397,94373,107015
43407,94355,106965
43417,94358,106947
43427,94351,106919
43437,94345,106916
43447,94347,106888
43457,94322,106876
43467,94331,106861
43477,94317,106878
43487,94319,106847
43497,94298,106852
43507,94297,106857
43517,94304,106855
43527,94302,106900
43537,94328,106906
43547,94317,106918
43557,94320,106944
43567,94345,106998
43577,94354,107030
43587,94356,107047
43597,94363,107043
43607,94359,107049
43617,94356,107064
43627,94355,107062
43637,94372,107062
43647,94373,107066
43657,94375,107079
43667,94368,107075
43677,94372,107098
43687,94381,107118
43697,94386,107108
43707,94382,107135
43717,94393,107144
43727,94399,107169
43738,94437,107204
43747,94431,107224
43757,94433,107232
43767,94446,107266
43778,94447,107325
43787,94459,107323
43797,94476,107356
43807,94479,107375
43817,94490,107403
43828,94512,107443
43837,94527,107468
43847,94531,107503
43857,94531,107510
43868,94535,107540
43877,94560,107542
43887,94565,107590
43897,94573,107578
43907,94575,107608
43918,94598,107628
43927,94594,107647
43937,94595,107669
43947,94617,107686
43958,94600,107708
43967,94610,107720
43977,94628,107744
43987,94633,107757
43997,94639,107770
44008,94644,107805
44017,94656,107816
44027,94666,107825
44037,94681,107851
44048,94675,107849
44058,94674,107860
44067,94678,107868
44077,94682,107884
44088,94685,107914
44098,94682,107899
44107,94703,107920
44117,94710,107958
44127,94714,107980
44138,94728,108001
44148,94732,108015
44157,94735,108037
44167,94745,108064
44178,94766,108111
44188,94766,108115
44197,94776,108101
44207,94768,108102
44217,94760,108092
44228,94734,108035
44238,94735,107981
44247,94693,107866
44257,94642,107763
44268,94600,107644
44278,94572,107546
44287,94532,107437
44297,94484,107328
44307,94455,107277
44318,94422,107193
44328,94403,107171
44337,94410,107139
44347,94369,107122
44358,94358,107110
44368,94382,107089
44377,94392,107073
44387,94378,107094
44398,94357,107072
44408,94337,107075
44418,94353,107053
44427,94346,107046
44437,94350,107042
44448,94329,107052
44458,94341,107062
44467,94354,107078
44477,94376,107123
44488,94370,107131
44498,94377,107169
44508,94383,107166
44517,94386,107179
44527,94387,107221
44538,94407,107212
44548,94393,107216
44557,94401,107205
44567,94406,107236
44578,94394,107221
44588,94389,107221
44598,94383,107213
44607,94394,107217
44618,94401,107255
44628,94389,107224
44638,94409,107240
44647,94418,107243
44657,94414,107279
44668,94420,107295
44678,94425,107299
44688,94433,107310
44697,94427,107321
44708,94438,107341
44718,94431,107373
44728,94449,107388
44738,94459,107411
44747,94458,107432
44758,94474,107448
44768,94484,107468
44778,94497,107504
44787,94513,107490
44798,94511,107514
44808,94510,107550
44818,94513,107552
44828,94517,107568
44837,94527,107585
44848,94523,107611
44858,94540,107615
44868,94549,107621
44877,94564,107645
44888,94571,107669
44898,94559,107682
44908,94552,107682
44918,94593,107718
44927,94602,107739
44938,94594,107737
44948,94573,107753
44958,94590,107776
44967,94616,107803
44978,94616,107808
44988,94635,107828
44998,94610,107856
45008,94644,107854
45017,94645,107874
45028,94670,107900
45038,94662,107910
45048,94665,107928
45058,94671,107935
45068,94681,107969
45078,94699,107999
45088,94699,108000
45098,94709,108034
45108,94727,108054
45118,94743,108091
45128,94728,108117
45138,94739,108118
45148,94736,108126
45158,94757,108152
45168,94742,108166
45178,94769,108185
45188,94759,108170
45198,94746,108147
45208,94749,108098
45218,94719,108038
45228,94687,107939
45238,94651,107829
45248,94589,107711
45258,94555,107583
45268,94512,107472
45278,94472,107385
45288,94439,107277
45298,94422,107239
45308,94387,107192
45318,94359,107134
45328,94370,107105
45338,94348,107096
45348,94342,107075
45358,94331,107060
45368,94326,107070
45378,94327,107065
45388,94334,107060
45398,94323,107071
45408,94312,107050
45418,94314,107071
45428,94329,107064
45438,94321,107070
45448,94344,107106
45458,94323,107101
45468,94353,107145
45478,94361,107167
45488,94364,107184
45498,94361,107166
45508,94350,107177
45518,94352,107177
45528,94371,107184
45538,94360,107152
45548,94351,107159
45558,94349,107160
45568,94354,107163
45578,94344,107145
45588,94338,107145
45598,94334,107135
45608,94338,107132
45618,94352,107171
45628,94335,107162
45638,94348,107171
45648,94344,107186
45658,94361,107196
45668,94365,107225
45678,94368,107242
45688,94382,107253
45698,94372,107280
45708,94393,107287
45718,94399,107333
45728,94414,107330
45738,94422,107361
45748,94435,107368
45758,94419,107390
45768,94433,107436
45778,94449,107444
45788,94442,107441
45798,94459,107450
45808,94465,107478
45818,94466,107518
45829,94470,107530
45838,94487,107522
45848,94484,107543
45858,94467,107563
45868,94489,107575
45878,94504,107572
45888,94502,107591
45898,94491,107595
45908,94509,107619
45919,94518,107651
45928,94551,107637
45938,94538,107662
45948,94540,107678
45958,94547,107706
45968,94561,107714
45978,94581,107759
45988,94565,107770
45998,94581,107792
46009,94579,107801
46018,94596,107827
46028,94596,107848
46038,94599,107860
46049,94608,107900
46059,94630,107908
46068,94621,107931
46078,94644,107939
46088,94638,107917
46099,94628,107899
46108,94600,107833
46118,94582,107770
46128,94550,107677
46139,94502,107554
46149,94462,107439
46158,94420,107306
46168,94379,107226
46178,94346,107108
46189,94319,107032
46198,94287,106954
46208,94282,106944
46218,94254,106906
46229,94248,106880
46239,94242,106854
46248,94240,106858
46258,94235,106873
46268,94218,106849
46279,94228,106852
46288,94236,106829
46298,94205,106841
46308,94224,106854
46319,94234,106865
46329,94250,106880
46338,94234,106899
46348,94239,106927
46359,94267,106933
46369,94281,106976
46378,94258,106993
46388,94280,107014
46398,94286,107018
46409,94281,107041
46419,94293,107061
46428,94295,107054
46438,94297,107067
46449,94285,107053
46459,94283,107061
46469,94296,107070
46478,94294,107067
46488,94287,107079
46499,94291,107078
46509,94287,107076
46518,94300,107088
46528,94292,107115
46539,94319,107125
46549,94312,107148
46559,94340,107171
46568,94352,107196
46578,94344,107221
46589,94357,107237
46599,94370,107266
46608,94384,107287
46618,94396,107348
46629,94414,107363
46639,94382,107386
46649,94417,107400
46658,94423,107424
46669,94464,107459
46679,94462,107475
46689,94450,107494
46698,94466,107511
46708,94470,107545
46719,94480,107558
46729,94484,107568
46739,94475,107605
46748,94499,107589
46759,94492,107621
46769,94510,107643
46779,94513,107645
46789,94528,107650
46798,94529,107684
46809,94535,107712
46819,94542,107712
46829,94552,107736
46838,94584,107746
46849,94553,107760
46859,94566,107803
46869,94578,107806
46879,94568,107821
46888,94590,107859
46899,94597,107879
46909,94610,107873
46919,94604,107908
46928,94632,107924
46939,94613,107953
46949,94636,107979
46959,94663,108001
46969,94656,108017
46978,94672,108026
46989,94673,108066
46999,94659,108069
47009,94679,108089
47018,94690,108100
47029,94703,108137
47039,94706,108169
47049,94718,108169
47059,94719,108214
47068,94740,108217
47079,94737,108229
47089,94717,108211
47099,94727,108209
47109,94713,108155
47119,94689,108080
47129,94647,107979
47139,94628,107853
47149,94566,107716
47158,94531,107567
47169,94468,107449
47179,94434,107319
47189,94372,107193
47199,94359,107101
47209,94315,107045
47219,94301,107005
47229,94289,106961
47239,94257,106926
47249,94262,106882
47259,94254,106903
47269,94254,106884
47279,94239,106873
47289,94236,106874
47299,94250,106886
47309,94247,106886
47319,94234,106874
47329,94229,106896
47339,94241,106906
47349,94252,106920
47359,94246,106956
47369,94262,106974
47379,94266,107011
47389,94277,107018
47399,94300,107042
47409,94289,107043
47419,94306,107078
47429,94309,107078
47439,94309,107083
47449,94316,107088
47459,94301,107112
47469,94317,107105
47479,94310,107080
47489,94295,107090
47499,94298,107105
47509,94308,107107
47519,94312,107117
47529,94321,107120
47539,94330,107136
47549,94339,107169
47559,94335,107201
47569,94357,107198
47579,94368,107248
47589,94370,107273
47599,94354,107288
47609,94408,107329
47619,94407,107348
47629,94422,107371
47639,94407,107414
47649,94429,107442
47659,94438,107476
47669,94453,107506
47679,94452,107517
47689,94467,107517
47699,94469,107558
47709,94488,107580
47719,94493,107608
47729,94517,107610
47739,94494,107640
47750,94516,107653
47759,94530,107700
47769,94526,107743
47779,94551,107735
47789,94537,107752
47799,94564,107756
47809,94560,107804
47819,94573,107797
47829,94568,107804
47840,94590,107837
47849,94586,107846
47859,94602,107902
47869,94632,107916
47879,94633,107930
47889,94632,107930
47899,94639,107965
47909,94626,107994
47919,94649,108006
47930,94662,108025
47939,94663,108045
47949,94665,108075
47959,94672,108088
47969,94689,108097
47979,94691,108115
47989,94698,108141
47999,94694,108167
48009,94711,108201
48020,94723,108204
48029,94729,108192
48039,94720,108237
48049,94722,108256
48060,94736,108283
48070,94750,108287
48079,94753,108299
48089,94766,108324
48099,94767,108349
48110,94790,108354
48119,94776,108346
48129,94749,108301
48139,94756,108270
48150,94720,108179
48160,94691,108076
48169,94654,107937
48179,94587,107801
48189,94539,107667
48200,94504,107522
48209,94452,107389
48219,94413,107320
48229,94378,107235
48240,94338,107158
48250,94352,107116
48259,94336,107088
48269,94319,107054
48279,94301,107056
48290,94299,107056
48299,94306,107063
48309,94310,107070
48319,94318,107091
48330,94313,107070
48340,94303,107082
48349,94314,107091
48359,94313,107120
48369,94323,107136
48380,94334,107167
48390,94337,107191
48399,94340,107218
48409,94368,107288
48420,94382,107286
48430,94376,107320
48439,94401,107325
48449,94413,107343
48460,94405,107355
48470,94410,107360
48480,94404,107342
48489,94392,107320
48499,94399,107343
48510,94398,107327
48520,94399,107327
48529,94387,107316
48539,94395,107348
48550,94399,107341
48560,94408,107374
48570,94415,107373
48579,94403,107376
48589,94412,107392
48600,94412,107422
48610,94436,107444
48619,94434,107466
48629,94433,107490
48640,94464,107525
48650,94456,107546
48660,94479,107593
48669,94504,107601
48679,94484,107638
48690,94502,107654
48700,94503,107662
48710,94520,107688
48719,94533,107711
48730,94522,107721
48740,94526,107755
48750,94533,107747
48759,94558,107762
48769,94543,107781
48780,94552,107784
48790,94562,107798
48800,94553,107812
48809,94569,107838
48820,94581,107847
48830,94558,107862
48840,94582,107871
48849,94585,107881
48859,94585,107907
48870,94600,107911
48880,94600,107920
48890,94614,107944
48899,94626,107973
48910,94635,107994
48920,94621,108004
48930,94630,107997
48939,94628,108018
48950,94637,108021
48960,94650,108057
48970,94664,108075
48980,94668,108098
48989,94667,108087
49000,94682,108134
49010,94682,108163
49020,94683,108189
49030,94701,108192
49040,94710,108201
49050,94702,108247
49060,94728,108267
49070,94750,108272
49079,94744,108291
49090,94741,108307
49100,94731,108256
49110,94705,108218
49120,94697,108110
49130,94638,107999
49140,94595,107893
49150,94539,107729
49160,94500,107596
49169,94446,107443
49180,94406,107317
49190,94357,107227
49200,94331,107131
49210,94314,107100
49220,94299,107050
49230,94286,107024
49240,94273,107015
49250,94266,107003
49259,94283,107010
49270,94286,107019
49280,94273,107018
49290,94260,107032
49300,94264,107063
49310,94292,107061
49320,94292,107087
49330,94295,107113
49340,94307,107133
49350,94304,107164
49360,94331,107203
49370,94345,107246
49380,94342,107253
49390,94354,107298
49400,94372,107303
49410,94383,107330
49420,94375,107326
49430,94361,107327
49440,94367,107326
49450,94350,107296
49460,94353,107317
49470,94363,107284
49480,94355,107291
49490,94358,107271
49500,94347,107279
49510,94366,107285
49520,94340,107286
49530,94344,107275
49540,94371,107295
49550,94373,107335
49560,94386,107347
49570,94383,107367
49580,94382,107393
49590,94393,107427
49600,94415,107465
49610,94428,107489
49620,94420,107515
49630,94461,107549
49640,94469,107580
49650,94467,107614
49660,94472,107627
49670,94488,107649
49680,94500,107686
49690,94525,107725
49700,94519,107744
49710,94523,107739
49720,94529,107743
49730,94527,107775
49740,94524,107785
49750,94519,107782
49761,94541,107786
49770,94541,107792
49780,94525,107827
49790,94521,107808
49800,94550,107833
49810,94554,107839
49820,94557,107852
49830,94571,107872
49840,94556,107884
49851,94574,107905
49860,94586,107914
49870,94579,107926
49880,94596,107947
49890,94591,107974
49900,94603,108008
49910,94623,108002
49920,94612,108024
49930,94622,108057
49941,94645,108063
49950,94661,108083
49960,94655,108137
49970,94654,108135
49980,94665,108164
49991,94675,108168
50000,94679,108234
50010,94686,108241
50020,94709,108211
50031,94695,108212
50040,94681,108163
50050,94667,108092
50060,94602,107968
50070,94574,107822
50081,94507,107676
50090,94472,107513
50100,94426,107393
50110,94379,107234
50121,94316,107125
50130,94293,107039
50140,94263,106989
50150,94243,106944
50161,94218,106900
50171,94207,106861
50180,94207,106854
50190,94190,106844
50200,94197,106865
50211,94205,106861
50220,94221,106856
50230,94198,106873
50240,94192,106890
50251,94214,106906
50261,94212,106921
50270,94226,106916
50280,94217,106961
50290,94233,106987
50301,94240,107026
50310,94260,107045
50320,94265,107060
50330,94266,107107
50341,94262,107116
50351,94268,107137
50360,94294,107140
50370,94288,107143
50381,94273,107136
50391,94268,107148
50400,94285,107140
50410,94298,107134
50420,94274,107141
50431,94288,107124
50441,94281,107150
50450,94290,107138
50460,94292,107164
50471,94298,107168
50481,94311,107186
50490,94316,107201
50500,94317,107257
50511,94325,107287
50521,94339,107310
50531,94351,107352
50540,94371,107375
50550,94377,107420
50561,94394,107444
50571,94382,107469
50580,94408,107472
50590,94423,107516
50601,94434,107567
50611,94428,107581
50621,94438,107592
50630,94438,107588
50640,94436,107621
50651,94462,107632
50661,94448,107632
50670,94458,107638
50680,94461,107663
50691,94484,107706
50701,94478,107726
50711,94485,107734
50720,94499,107735
50730,94495,107783
50741,94504,107791
50751,94530,107813
50760,94529,107830
50770,94522,107851
50781,94541,107890
50791,94557,107881
50801,94576,107918
50810,94561,107929
50821,94559,107944
50831,94565,107966
50841,94565,107971
50850,94589,107988
50860,94604,108010
50871,94587,108041
50881,94611,108047
50891,94611,108079
50900,94635,108083
50911,94613,108117
50921,94630,108124
50931,94647,108150
50940,94652,108185
50951,94675,108200
50961,94679,108240
50971,94676,108231
50981,94688,108270
50990,94687,108301
51001,94692,108317
51011,94712,108318
51021,94706,108358
51030,94724,108354
51041,94737,108372
51051,94722,108359
51061,94710,108295
51071,94660,108201
51080,94613,108050
51091,94573,107902
51101,94529,107729
51111,94437,107574
51120,94396,107390
51131,94335,107244
51141,94308,107145
51151,94270,107025
51161,94233,106960
51171,94200,106886
51181,94197,106860
51191,94170,106839
51201,94181,106831
51210,94177,106815
51221,94166,106833
51231,94169,106838
51241,94169,106831
51251,94166,106847
51261,94175,106825
51271,94188,106855
51281,94164,106834
51291,94167,106879
51301,94188,106897
51311,94198,106910
51321,94207,106957
51331,94199,106970
51341,94226,107002
51351,94239,107033
51361,94225,107052
51371,94238,107062
51381,94236,107073
51391,94245,107077
51401,94265,107088
51411,94237,107076
51421,94234,107071
51431,94242,107088
51441,94236,107049
51451,94237,107085
51461,94250,107070
51471,94243,107094
51481,94249,107097
51491,94256,107143
51501,94253,107167
51511,94265,107156
51521,94282,107197
51531,94302,107221
51541,94289,107264
51551,94330,107293
51561,94311,107306
51571,94327,107342
51581,94347,107387
51591,94372,107435
51601,94348,107447
51611,94384,107487
51621,94389,107518
51631,94392,107547
51641,94411,107572
51651,94429,107606
51661,94433,107614
51671,94440,107631
51681,94433,107647
51691,94444,107669
51701,94445,107689
51711,94456,107694
51721,94448,107725
51731,94458,107738
51741,94481,107741
51751,94477,107760
51761,94480,107768
51771,94491,107804
51781,94486,107802
51791,94492,107842
51801,94511,107835
51811,94502,107871
51821,94524,107874
51831,94510,107885
51841,94529,107904
51851,94540,107925
51861,94549,107940
51871,94541,107960
51881,94559,107969
51891,94566,107984
51901,94581,108016
51911,94574,108008
51921,94569,108034
51931,94579,108051
51941,94593,108103
51951,94613,108116
51961,94622,108129
51972,94629,108137
51981,94636,108165
51991,94630,108206
52001,94664,108203
52011,94636,108220
52021,94652,108230
52031,94645,108259
52041,94664,108307
52051,94676,108309
52062,94693,108329
52071,94698,108334
52081,94672,108302
52091,94659,108239
52101,94620,108118
52112,94566,107961
52121,94510,107805
52131,94472,107647
52141,94392,107510
52152,94342,107342
52161,94294,107201
52171,94242,107085
52181,94206,106996
52192,94190,106924
52202,94181,106895
52211,94158,106851
52221,94156,106846
52231,94148,106825
52242,94135,106846
52251,94158,106830
52261,94142,106862
52271,94138,106853
52282,94136,106880
52292,94150,106894
52301,94174,106908
52311,94167,106927
52321,94171,106942
52332,94175,106975
52341,94194,106990
52351,94212,107033
52361,94210,107071
52372,94226,107104
52382,94236,107110
52391,94239,107141
52401,94244,107142
52411,94238,107135
52422,94218,107123
52431,94224,107099
52441,94228,107107
52451,94226,107109
52462,94215,107099
52472,94212,107088
52481,94224,107092
52491,94226,107111
52502,94241,107128
52512,94233,107125
52521,94236,107134
52531,94247,107162
52541,94243,107198
52552,94247,107207
52562,94270,107229
52571,94281,107244
52581,94287,107290
52592,94305,107335
52602,94300,107357
52611,94323,107374
52621,94325,107416
52631,94341,107446
52642,94348,107469
52652,94360,107483
52661,94374,107508
52671,94374,107523
52682,94393,107549
52692,94381,107575
52701,94410,107609
52711,94409,107625
52721,94416,107642
52732,94413,107653
52742,94437,107695
52751,94443,107705
52761,94427,107725
52772,94455,107725
52782,94448,107754
52792,94483,107761
52801,94468,107773
52812,94457,107771
52822,94464,107782
52832,94478,107806
52841,94495,107803
52851,94502,107844
52862,94485,107836
52872,94490,107860
52882,94502,107884
52891,94507,107892
52902,94529,107900
52912,94512,107934
52922,94527,107959
52931,94555,107977
52941,94548,108007
52952,94562,108019
52962,94543,108046
52972,94574,108074
52981,94575,108103
52992,94578,108115
53002,94569,108092
53012,94567,108025
53021,94528,107926
53031,94496,107828
53042,94447,107702
53052,94396,107535
53062,94340,107371
53071,94297,107217
53082,94230,107078
53092,94166,106968
53102,94148,106868
53111,94118,106756
53122,94104,106739
53132,94096,106715
53142,94090,106704
53152,94084,106697
53161,94086,106696
53172,94081,106706
53182,94065,106718
53192,94080,106707
53201,94080,106720
53212,94092,106762
53222,94101,106774
53232,94098,106786
53242,94096,106825
53251,94131,106838
53262,94099,106863
53272,94138,106890
53282,94119,106925
53292,94139,106904
53302,94146,106925
53312,94123,106936
53322,94134,106948
53332,94147,106930
53341,94143,106938
53352,94147,106930
53362,94132,106915
53372,94111,106895
53382,94127,106909
53392,94130,106920
53402,94124,106921
53412,94122,106921
53422,94138,106941
53432,94147,106946
53442,94142,106961
53452,94141,106969
53462,94133,106965
53472,94167,106970
53482,94160,107009
53492,94174,107052
53502,94180,107071
53512,94187,107095
53522,94201,107103
53532,94194,107144
53542,94194,107180
53552,94220,107185
53562,94223,107229
53572,94249,107250
53582,94248,107293
53592,94261,107306
53602,94276,107324
53612,94277,107342
53622,94274,107361
53632,94298,107381
53642,94293,107388
53652,94308,107392
53662,94312,107425
53672,94306,107440
53682,94313,107452
53692,94337,107466
53702,94340,107473
53712,94334,107485
53722,94332,107507
53732,94335,107509
53742,94351,107557
53752,94356,107558
53762,94366,107595
53772,94382,107592
53782,94362,107624
53792,94400,107640
53802,94391,107651
53812,94384,107672
53822,94407,107690
53832,94412,107717
53842,94434,107728
53852,94432,107748
53862,94429,107781
53872,94445,107798
53882,94463,107815
53892,94464,107845
53902,94451,107850
53912,94466,107871
53922,94462,107913
53932,94495,107932
53942,94522,107962
53952,94516,107974
53962,94513,107989
53972,94529,108039
53982,94543,108058
53992,94560,108084
54002,94559,108096
54012,94553,108110
54022,94551,108081
54032,94529,108058
54042,94513,107964
54052,94463,107806
54063,94399,107665
54072,94358,107500
54082,94257,107317
54092,94230,107139
54102,94164,106949
54112,94106,106788
54122,94070,106671
54132,94012,106568
54142,93998,106483
54153,93967,106451
54162,93962,106405
54172,93937,106379
54182,93928,106362
54192,93919,106356
54202,93921,106332
54212,93919,106340
54222,93911,106351
54232,93887,106357
54243,93928,106371
54252,93921,106350
54262,93927,106387
54272,93928,106380
54282,93934,106400
54292,93938,106437
54302,93939,106444
54312,93949,106474
54322,93938,106511
54333,93943,106550
54342,93964,106547
54352,93980,106573
54362,93968,106553
54373,93974,106583
54382,93988,106580
54392,93982,106584
54402,93966,106596
54412,93969,106575
54423,93984,106576
54432,93982,106583
54442,93969,106593
54452,93965,106582
54463,93967,106595
54473,93979,106613
54482,93985,106645
54492,93990,106675
54502,94004,106687
54513,94014,106723
54522,94039,106735
54532,94043,106771
54542,94033,106833
54553,94055,106859
54563,94073,106894
54572,94088,106922
54582,94100,106978
54592,94109,106987
54603,94114,107004
54612,94122,107016
54622,94133,107062
54632,94134,107077
54643,94154,107103
54653,94148,107113
54662,94163,107141
54672,94162,107145
54682,94169,107157
54693,94172,107163
54702,94175,107156
54712,94167,107188
54722,94180,107184
54733,94178,107231
54743,94210,107232
54752,94185,107240
54762,94189,107269
54773,94214,107261
54783,94225,107313
54792,94253,107337
54802,94238,107357
54812,94238,107389
54823,94256,107385
54833,94266,107397
54842,94260,107398
54852,94279,107436
54863,94283,107452
54873,94318,107472
54882,94314,107511
54892,94322,107507
54902,94328,107545
54913,94322,107564
54923,94322,107595
54932,94349,107605
54942,94362,107649
54953,94366,107648
54963,94380,107672
54972,94375,107678
54982,94390,107715
54993,94390,107753
55003,94395,107741
55013,94405,107748
55022,94399,107756
55032,94395,107745
55043,94411,107725
55053,94357,107643
55063,94333,107536
55072,94283,107380
55083,94217,107196
55093,94144,107016
55103,94067,106773
55112,93981,106570
55122,93930,106419
55133,93861,106252
55143,93825,106137
55153,93789,106052
55162,93773,105979
55173,93747,105949
55183,93745,105935
55193,93728,105919
55202,93714,105911
55212,93727,105928
55223,93731,105944
55233,93718,105958
55243,93711,105921
55252,93697,105915
55263,93686,105910
55273,93692,105915
55283,93672,105912
55292,93682,105905
55302,93674,105922
55313,93693,105982
55323,93698,106005
55333,93713,106043
55342,93723,106066
55353,93714,106090
55363,93736,106131
55373,93735,106170
55382,93768,106183
55393,93763,106212
55403,93765,106230
55413,93755,106240
55423,93765,106255
55432,93775,106279
55443,93769,106296
55453,93797,106338
55463,93813,106400
55472,93848,106464
55483,93874,106540
55493,93888,106581
55503,93911,106635
55513,93922,106698
55522,93962,106775
55533,93994,106841
55543,94009,106896
55553,93994,106926
55563,94045,106979
55573,94046,107032
55583,94093,107078
55593,94093,107119
55603,94104,107146
55612,94132,107203
55623,94140,107246
55633,94157,107285
55643,94165,107317
55653,94172,107364
55663,94201,107371
55673,94187,107418
55683,94214,107446
55693,94235,107435
55702,94227,107458
55713,94243,107505
55723,94242,107531
55733,94255,107563
55743,94265,107562
55753,94278,107576
55763,94291,107611
55773,94289,107616
55783,94317,107632
55793,94299,107640
55803,94307,107655
55813,94310,107674
55823,94323,107700
55833,94350,107746
55843,94362,107754
55853,94350,107776
55863,94357,107794
55873,94355,107827
55883,94377,107860
55893,94382,107888
55903,94398,107948
55913,94402,107939
55923,94420,107970
55933,94447,107986
55943,94443,107994
55953,94440,108006
55963,94423,108022
55973,94435,108026
55983,94443,108029
55993,94437,107979
56003,94382,107855
56013,94325,107711
56023,94290,107531
56033,94211,107353
56043,94155,107172
56053,94101,107017
56063,94058,106875
56073,94006,106727
56083,93956,106611
56093,93908,106477
56103,93866,106396
56113,93862,106315
56123,93836,106280
56133,93808,106279
56143,93808,106251
56153,93819,106265
56163,93827,106238
56173,93817,106276
56183,93822,106277
56193,93814,106255
56203,93836,106282
56213,93833,106328
56223,93858,106365
56233,93863,106393
56243,93901,106443
56253,93898,106508
56263,93910,106586
56273,93931,106619
56283,93957,106641
56293,93967,106642
56303,93960,106692
56313,93960,106676
56323,93955,106676
56333,93977,106663
56343,93969,106634
56353,93939,106641
56363,93955,106623
56373,93932,106597
56383,93954,106616
56393,93951,106619
56403,93944,106632
56413,93935,106627
56423,93973,106668
56433,93978,106659
56443,93951,106689
56453,93977,106706
56463,93976,106731
56473,93979,106758
56483,93998,106775
56493,93998,106818
56503,94013,106839
56513,94041,106881
56523,94062,106921
56533,94069,106962
56543,94085,106986
56553,94085,107020
56564,94105,107050
56573,94106,107074
56583,94115,107082
56593,94131,107104
56604,94115,107114
56613,94150,107114
56623,94136,107170
56633,94142,107179
56643,94145,107173
56654,94158,107201
56663,94171,107245
56673,94184,107249
56683,94185,107270
56694,94188,107295
56703,94207,107289
56713,94188,107315
56723,94199,107336
56733,94205,107342
56744,94214,107339
56753,94213,107353
56763,94232,107393
56773,94249,107407
56784,94258,107458
56793,94270,107489
56803,94273,107530
56813,94299,107591
56823,94319,107610
56834,94319,107622
56843,94321,107630
56853,94311,107646
56863,94325,107624
56874,94300,107592
56884,94289,107509
56893,94276,107407
56903,94208,107306
56913,94170,107141
56924,94108,107002
56933,94060,106849
56943,94008,106710
56953,93951,106584
56964,93917,106493
56974,93883,106418
56983,93879,106348
56993,93846,106334
57003,93839,106295
57014,93829,106279
57023,93829,106280
57033,93823,106288
57043,93817,106287
57054,93827,106294
57064,93825,106287
57073,93820,106284