Time,PPG
0.0000,0.136669
0.0025,0.152285
0.0050,0.190694
0.0075,0.204592
0.0100,0.213872
0.0125,0.278334
0.0150,0.284174
0.0175,0.345541
0.0200,0.371662
0.0225,0.405048
0.0250,0.463007
0.0275,0.519706
0.0300,0.535133
0.0325,0.597769
0.0350,0.662975
0.0375,0.673742
0.0400,0.725743
0.0425,0.785482
0.0450,0.831183
0.0475,0.859204
0.0500,0.912940
0.0525,0.926840
0.0550,0.937491
0.0575,0.976195
0.0600,0.989029
0.0625,0.998506
0.0650,0.988222
0.0675,1.015228
0.0700,0.989027
0.0725,0.981303
0.0750,0.971542
0.0775,0.940719
0.0800,0.893393
0.0825,0.876787
0.0850,0.842269
0.0875,0.779467
0.0900,0.732941
0.0925,0.689933
0.0950,0.638552
0.0975,0.583655
0.1000,0.542842
0.1025,0.502458
0.1050,0.452620
0.1075,0.408151
0.1100,0.342847
0.1125,0.310634
0.1150,0.245371
0.1175,0.226718
0.1200,0.181688
0.1225,0.157465
0.1250,0.145143
0.1275,0.116678
0.1300,0.083917
0.1325,0.086357
0.1350,0.067723
0.1375,0.081251
0.1400,0.063405
0.1425,0.098915
0.1450,0.122188
0.1475,0.118850
0.1500,0.139267
0.1525,0.159262
0.1550,0.169834
0.1575,0.208150
0.1600,0.219799
0.1625,0.241900
0.1650,0.239538
0.1675,0.274477
0.1700,0.259962
0.1725,0.268475
0.1750,0.306813
0.1775,0.290598
0.1800,0.276237
0.1825,0.293362
0.1850,0.277327
0.1875,0.257032
0.1900,0.250331
0.1925,0.236068
0.1950,0.238050
0.1975,0.227779
0.2000,0.207234
0.2025,0.182488
0.2050,0.191920
0.2075,0.169285
0.2100,0.166349
0.2125,0.124365
0.2150,0.136467
0.2175,0.124989
0.2200,0.110971
0.2225,0.096217
0.2250,0.080427
0.2275,0.054870
0.2300,0.061206
0.2325,0.050514
0.2350,0.054761
0.2375,0.021781
0.2400,0.037268
0.2425,0.032991
0.2450,0.034666
0.2475,0.015779
0.2500,0.000000
0.2525,0.000000
0.2550,0.027494
0.2575,0.006076
0.2600,0.025418
0.2625,0.000000
0.2650,0.001079
0.2675,0.000000
0.2700,0.021128
0.2725,0.000000
0.2750,0.000000
0.2775,0.000000
0.2800,0.012260
0.2825,0.001860
0.2850,0.001134
0.2875,0.014979
0.2900,0.001868
0.2925,0.018942
0.2950,0.000000
0.2975,0.000000
0.3000,0.009605
0.3025,0.000000
0.3050,0.002298
0.3075,0.000000
0.3100,0.000000
0.3125,0.007073
0.3150,0.013348
0.3175,0.003935
0.3200,0.005678
0.3225,0.014571
0.3250,0.001513
0.3275,0.011829
0.3300,0.011405
0.3325,0.000000
0.3350,0.000000
0.3375,0.000000
0.3400,0.000000
0.3425,0.000000
0.3450,0.000000
0.3475,0.000000
0.3500,0.000000
0.3525,0.011241
0.3550,0.001837
0.3575,0.000000
0.3600,0.002780
0.3625,0.000000
0.3650,0.000000
0.3675,0.000000
0.3700,0.000000
0.3725,0.006949
0.3750,0.000000
0.3775,0.000000
0.3800,0.015296
0.3825,0.007649
0.3850,0.000000
0.3875,0.008437
0.3900,0.000000
0.3925,0.015519
0.3950,0.014974
0.3975,0.008681
0.4000,0.010611
0.4025,0.000000
0.4050,0.010642
0.4075,0.008314
0.4100,0.008444
0.4125,0.000000
0.4150,0.001621
0.4175,0.000000
0.4200,0.013117
0.4225,0.005898
0.4250,0.000000
0.4275,0.000000
0.4300,0.010493
0.4325,0.000000
0.4350,0.015631
0.4375,0.015549
0.4400,0.017562
0.4425,0.012137
0.4450,0.000000
0.4475,0.000000
0.4500,0.008755
0.4525,0.002313
0.4550,0.000000
0.4575,0.000000
0.4600,0.007331
0.4625,0.000000
0.4650,0.000000
0.4675,0.000000
0.4700,0.000000
0.4725,0.000000
0.4750,0.011762
0.4775,0.000000
0.4800,0.017731
0.4825,0.000000
0.4850,0.011446
0.4875,0.011728
0.4900,0.000000
0.4925,0.000000
0.4950,0.016127
0.4975,0.000000
0.5000,0.004262
0.5025,0.015002
0.5050,0.018654
0.5075,0.003980
0.5100,0.007505
0.5125,0.013392
0.5150,0.001401
0.5175,0.000000
0.5200,0.000000
0.5225,0.000000
0.5250,0.004260
0.5275,0.000058
0.5300,0.000000
0.5325,0.002014
0.5350,0.012080
0.5375,0.008670
0.5400,0.013441
0.5425,0.010802
0.5450,0.017822
0.5475,0.000000
0.5500,0.005433
0.5525,0.000716
0.5550,0.000000
0.5575,0.000000
0.5600,0.000000
0.5625,0.011909
0.5650,0.000000
0.5675,0.000000
0.5700,0.000000
0.5725,0.000000
0.5750,0.004676
0.5775,0.003928
0.5800,0.000000
0.5825,0.006380
0.5850,0.000000
0.5875,0.000000
0.5900,0.003076
0.5925,0.000000
0.5950,0.013729
0.5975,0.015858
0.6000,0.009067
0.6025,0.011574
0.6050,0.014897
0.6075,0.000657
0.6100,0.000000
0.6125,0.000000
0.6150,0.000000
0.6175,0.015997
0.6200,0.000000
0.6225,0.000000
0.6250,0.011697
0.6275,0.000000
0.6300,0.011074
0.6325,0.001075
0.6350,0.007876
0.6375,0.013136
0.6400,0.000000
0.6425,0.000000
0.6450,0.010779
0.6475,0.011249
0.6500,0.003986
0.6525,0.000000
0.6550,0.000000
0.6575,0.000000
0.6600,0.000000
0.6625,0.016056
0.6650,0.000000
0.6675,0.000000
0.6700,0.014520
0.6725,0.019404
0.6750,0.000000
0.6775,0.000070
0.6800,0.019482
0.6825,0.000000
0.6850,0.000000
0.6875,0.000000
0.6900,0.005295
0.6925,0.014154
0.6950,0.000000
0.6975,0.005656
0.7000,0.000000
0.7025,0.018223
0.7050,0.003122
0.7075,0.019752
0.7100,0.000000
0.7125,0.012765
0.7150,0.000000
0.7175,0.012639
0.7200,0.004388
0.7225,0.000000
0.7250,0.013778
0.7275,0.013938
0.7300,0.018982
0.7325,0.012889
0.7350,0.000000
0.7375,0.000000
0.7400,0.000000
0.7425,0.006305
0.7450,0.000000
0.7475,0.002033
0.7500,0.010401
0.7525,0.000000
0.7550,0.000000
0.7575,0.000000
0.7600,0.000884
0.7625,0.000000
0.7650,0.011924
0.7675,0.005452
0.7700,0.000000
0.7725,0.000000
0.7750,0.000000
0.7775,0.000472
0.7800,0.002799
0.7825,0.015315
0.7850,0.005899
0.7875,0.000000
0.7900,0.000000
0.7925,0.013218
0.7950,0.008322
0.7975,0.002415
0.8000,0.115768
0.8025,0.132324
0.8050,0.189820
0.8075,0.195731
0.8100,0.216153
0.8125,0.240641
0.8150,0.281045
0.8175,0.329792
0.8200,0.375564
0.8225,0.399624
0.8250,0.471689
0.8275,0.522686
0.8300,0.540367
0.8325,0.595789
0.8350,0.659001
0.8375,0.701661
0.8400,0.755250
0.8425,0.793439
0.8450,0.809138
0.8475,0.846122
0.8500,0.891089
0.8525,0.911933
0.8550,0.934832
0.8575,0.992550
0.8600,0.996076
0.8625,1.005287
0.8650,1.015364
0.8675,0.997592
0.8700,0.991811
0.8725,0.979561
0.8750,0.948179
0.8775,0.922820
0.8800,0.892297
0.8825,0.880691
0.8850,0.839956
0.8875,0.764453
0.8900,0.745089
0.8925,0.688423
0.8950,0.649535
0.8975,0.597606
0.9000,0.561555
0.9025,0.500884
0.9050,0.424907
0.9075,0.394846
0.9100,0.333343
0.9125,0.303647
0.9150,0.244069
0.9175,0.203654
0.9200,0.173040
0.9225,0.173162
0.9250,0.140028
0.9275,0.092334
0.9300,0.097255
0.9325,0.081666
0.9350,0.087077
0.9375,0.073603
0.9400,0.096366
0.9425,0.086236
0.9450,0.112867
0.9475,0.135135
0.9500,0.146699
0.9525,0.144361
0.9550,0.183606
0.9575,0.205883
0.9600,0.230716
0.9625,0.233048
0.9650,0.245650
0.9675,0.283721
0.9700,0.290747
0.9725,0.296839
0.9750,0.290831
0.9775,0.277470
0.9800,0.300093
0.9825,0.304643
0.9850,0.286208
0.9875,0.268478
0.9900,0.282984
0.9925,0.233394
0.9950,0.231468
0.9975,0.237584
1.0000,0.208891
1.0025,0.200556
1.0050,0.199850
1.0075,0.165340
1.0100,0.139894
1.0125,0.134830
1.0150,0.143008
1.0175,0.097810
1.0200,0.096427
1.0225,0.104332
1.0250,0.093882
1.0275,0.067361
1.0300,0.046427
1.0325,0.043021
1.0350,0.023964
1.0375,0.020244
1.0400,0.044904
1.0425,0.037263
1.0450,0.031565
1.0475,0.002189
1.0500,0.009594
1.0525,0.000000
1.0550,0.000000
1.0575,0.000000
1.0600,0.000000
1.0625,0.001557
1.0650,0.012042
1.0675,0.000000
1.0700,0.000000
1.0725,0.000000
1.0750,0.020540
1.0775,0.000473
1.0800,0.000000
1.0825,0.000000
1.0850,0.000000
1.0875,0.000000
1.0900,0.013141
1.0925,0.000000
1.0950,0.000000
1.0975,0.000000
1.1000,0.000000
1.1025,0.011026
1.1050,0.000000
1.1075,0.005268
1.1100,0.000000
1.1125,0.010053
1.1150,0.000000
1.1175,0.000000
1.1200,0.000000
1.1225,0.000343
1.1250,0.000000
1.1275,0.010816
1.1300,0.000000
1.1325,0.000000
1.1350,0.000000
1.1375,0.010897
1.1400,0.000883
1.1425,0.000000
1.1450,0.000000
1.1475,0.000000
1.1500,0.003623
1.1525,0.015140
1.1550,0.010849
1.1575,0.007765
1.1600,0.000000
1.1625,0.005693
1.1650,0.019917
1.1675,0.007838
1.1700,0.000000
1.1725,0.000000
1.1750,0.000000
1.1775,0.000000
1.1800,0.015491
1.1825,0.000000
1.1850,0.000505
1.1875,0.000000
1.1900,0.000000
1.1925,0.014540
1.1950,0.019949
1.1975,0.013895
1.2000,0.015808
1.2025,0.000000
1.2050,0.000000
1.2075,0.017788
1.2100,0.000000
1.2125,0.009343
1.2150,0.000000
1.2175,0.000000
1.2200,0.000000
1.2225,0.014764
1.2250,0.000000
1.2275,0.000000
1.2300,0.000000
1.2325,0.007179
1.2350,0.000000
1.2375,0.012042
1.2400,0.000000
1.2425,0.000000
1.2450,0.017551
1.2475,0.000000
1.2500,0.018043
1.2525,0.000000
1.2550,0.000000
1.2575,0.003172
1.2600,0.014767
1.2625,0.012943
1.2650,0.000000
1.2675,0.000000
1.2700,0.000000
1.2725,0.000000
1.2750,0.002073
1.2775,0.009902
1.2800,0.008767
1.2825,0.009786
1.2850,0.000000
1.2875,0.000000
1.2900,0.001868
1.2925,0.011484
1.2950,0.011549
1.2975,0.000000
1.3000,0.002006
1.3025,0.017739
1.3050,0.000000
1.3075,0.014776
1.3100,0.000000
1.3125,0.011129
1.3150,0.000000
1.3175,0.000000
1.3200,0.013358
1.3225,0.004725
1.3250,0.000000
1.3275,0.004313
1.3300,0.000000
1.3325,0.012519
1.3350,0.000000
1.3375,0.000000
1.3400,0.004700
1.3425,0.000000
1.3450,0.004761
1.3475,0.000000
1.3500,0.003266
1.3525,0.000000
1.3550,0.000000
1.3575,0.009378
1.3600,0.004211
1.3625,0.017460
1.3650,0.000000
1.3675,0.015162
1.3700,0.000000
1.3725,0.000000
1.3750,0.000000
1.3775,0.011245
1.3800,0.000000
1.3825,0.004489
1.3850,0.000000
1.3875,0.000000
1.3900,0.000000
1.3925,0.000000
1.3950,0.019016
1.3975,0.015216
1.4000,0.006596
1.4025,0.000000
1.4050,0.000000
1.4075,0.000000
1.4100,0.018788
1.4125,0.017290
1.4150,0.000000
1.4175,0.005759
1.4200,0.016824
1.4225,0.008576
1.4250,0.000000
1.4275,0.000000
1.4300,0.019921
1.4325,0.006615
1.4350,0.006262
1.4375,0.000000
1.4400,0.011487
1.4425,0.000967
1.4450,0.014569
1.4475,0.000000
1.4500,0.000000
1.4525,0.000000
1.4550,0.007469
1.4575,0.007658
1.4600,0.014449
1.4625,0.000000
1.4650,0.013236
1.4675,0.000000
1.4700,0.000000
1.4725,0.018246
1.4750,0.003256
1.4775,0.000000
1.4800,0.000557
1.4825,0.006295
1.4850,0.007528
1.4875,0.000000
1.4900,0.000000
1.4925,0.000000
1.4950,0.009602
1.4975,0.015226
1.5000,0.013921
1.5025,0.016431
1.5050,0.017234
1.5075,0.000000
1.5100,0.000000
1.5125,0.000000
1.5150,0.004986
1.5175,0.002525
1.5200,0.011189
1.5225,0.000000
1.5250,0.005036
1.5275,0.014462
1.5300,0.000000
1.5325,0.003724
1.5350,0.002429
1.5375,0.004007
1.5400,0.000000
1.5425,0.009673
1.5450,0.000000
1.5475,0.000000
1.5500,0.000000
1.5525,0.008773
1.5550,0.006516
1.5575,0.000000
1.5600,0.001462
1.5625,0.009658
1.5650,0.012333
1.5675,0.000788
1.5700,0.000000
1.5725,0.017001
1.5750,0.015431
1.5775,0.011819
1.5800,0.010023
1.5825,0.000000
1.5850,0.007453
1.5875,0.009795
1.5900,0.000000
1.5925,0.003436
1.5950,0.000000
1.5975,0.000000
1.6000,0.122236
1.6025,0.163064
1.6050,0.158408
1.6075,0.193794
1.6100,0.211728
1.6125,0.260881
1.6150,0.310686
1.6175,0.316049
1.6200,0.352510
1.6225,0.417878
1.6250,0.460898
1.6275,0.509396
1.6300,0.538475
1.6325,0.582998
1.6350,0.664017
1.6375,0.692921
1.6400,0.723787
1.6425,0.777113
1.6450,0.841499
1.6475,0.845138
1.6500,0.907005
1.6525,0.921540
1.6550,0.965198
1.6575,0.990148
1.6600,0.978452
1.6625,1.008892
1.6650,1.003600
1.6675,1.001988
1.6700,0.972568
1.6725,0.991719
1.6750,0.959684
1.6775,0.930631
1.6800,0.903143
1.6825,0.861584
1.6850,0.828239
1.6875,0.772963
1.6900,0.740725
1.6925,0.694258
1.6950,0.645043
1.6975,0.598288
1.7000,0.559132
1.7025,0.505527
1.7050,0.430104
1.7075,0.408123
1.7100,0.348159
1.7125,0.311518
1.7150,0.254764
1.7175,0.214912
1.7200,0.170495
1.7225,0.163368
1.7250,0.112951
1.7275,0.109191
1.7300,0.101055
1.7325,0.083402
1.7350,0.073710
1.7375,0.084426
1.7400,0.072976
1.7425,0.085419
1.7450,0.099523
1.7475,0.108800
1.7500,0.126047
1.7525,0.161523
1.7550,0.177751
1.7575,0.192800
1.7600,0.243144
1.7625,0.232475
1.7650,0.268491
1.7675,0.278089
1.7700,0.260214
1.7725,0.266960
1.7750,0.296134
1.7775,0.300801
1.7800,0.273631
1.7825,0.289679
1.7850,0.265381
1.7875,0.254355
1.7900,0.256401
1.7925,0.256240
1.7950,0.244893
1.7975,0.217686
1.8000,0.208718
1.8025,0.216923
1.8050,0.194450
1.8075,0.176699
1.8100,0.141598
1.8125,0.118637
1.8150,0.136086
1.8175,0.111330
1.8200,0.078853
1.8225,0.084348
1.8250,0.063195
1.8275,0.077583
1.8300,0.042513
1.8325,0.030754
1.8350,0.044054
1.8375,0.036368
1.8400,0.048622
1.8425,0.026100
1.8450,0.036327
1.8475,0.000326
1.8500,0.000000
1.8525,0.008395
1.8550,0.027498
1.8575,0.008293
1.8600,0.014580
1.8625,0.023492
1.8650,0.015680
1.8675,0.017004
1.8700,0.011745
1.8725,0.003121
1.8750,0.006244
1.8775,0.020767
1.8800,0.000000
1.8825,0.004083
1.8850,0.000000
1.8875,0.010614
1.8900,0.015269
1.8925,0.010324
1.8950,0.014031
1.8975,0.004742
1.9000,0.018964
1.9025,0.019628
1.9050,0.018978
1.9075,0.001833
1.9100,0.014998
1.9125,0.000000
1.9150,0.010617
1.9175,0.008651
1.9200,0.004455
1.9225,0.011972
1.9250,0.010611
1.9275,0.000000
1.9300,0.004209
1.9325,0.000000
1.9350,0.005431
1.9375,0.000000
1.9400,0.002345
1.9425,0.001125
1.9450,0.000000
1.9475,0.000000
1.9500,0.009928
1.9525,0.000000
1.9550,0.000000
1.9575,0.000000
1.9600,0.000000
1.9625,0.000000
1.9650,0.000000
1.9675,0.000000
1.9700,0.000000
1.9725,0.000323
1.9750,0.003690
1.9775,0.000000
1.9800,0.014295
1.9825,0.015555
1.9850,0.017850
1.9875,0.005384
1.9900,0.001623
1.9925,0.010114
1.9950,0.000000
1.9975,0.008722
2.0000,0.000000
2.0025,0.006281
2.0050,0.006901
2.0075,0.007193
2.0100,0.011333
2.0125,0.009475
2.0150,0.006545
2.0175,0.000000
2.0200,0.000000
2.0225,0.010003
2.0250,0.000000
2.0275,0.000000
2.0300,0.000000
2.0325,0.000000
2.0350,0.000000
2.0375,0.016763
2.0400,0.000000
2.0425,0.000000
2.0450,0.008861
2.0475,0.000000
2.0500,0.000000
2.0525,0.007562
2.0550,0.000000
2.0575,0.000000
2.0600,0.009134
2.0625,0.000000
2.0650,0.018881
2.0675,0.012009
2.0700,0.000000
2.0725,0.000000
2.0750,0.004792
2.0775,0.000000
2.0800,0.009596
2.0825,0.017132
2.0850,0.000000
2.0875,0.014003
2.0900,0.014358
2.0925,0.000000
2.0950,0.000000
2.0975,0.000000
2.1000,0.002718
2.1025,0.000000
2.1050,0.018755
2.1075,0.001412
2.1100,0.000000
2.1125,0.007042
2.1150,0.000000
2.1175,0.018894
2.1200,0.007252
2.1225,0.012019
2.1250,0.017938
2.1275,0.010277
2.1300,0.010689
2.1325,0.000000
2.1350,0.000000
2.1375,0.007132
2.1400,0.016212
2.1425,0.000516
2.1450,0.000000
2.1475,0.000000
2.1500,0.017744
2.1525,0.014200
2.1550,0.000000
2.1575,0.013301
2.1600,0.000158
2.1625,0.002733
2.1650,0.004052
2.1675,0.017476
2.1700,0.011533
2.1725,0.006986
2.1750,0.000000
2.1775,0.000000
2.1800,0.000000
2.1825,0.000000
2.1850,0.009090
2.1875,0.000000
2.1900,0.000000
2.1925,0.000000
2.1950,0.000000
2.1975,0.000000
2.2000,0.000000
2.2025,0.017529
2.2050,0.000000
2.2075,0.000000
2.2100,0.017801
2.2125,0.000000
2.2150,0.014571
2.2175,0.002352
2.2200,0.019562
2.2225,0.019065
2.2250,0.000000
2.2275,0.000000
2.2300,0.000000
2.2325,0.000000
2.2350,0.003071
2.2375,0.000323
2.2400,0.000000
2.2425,0.007548
2.2450,0.016885
2.2475,0.000000
2.2500,0.000000
2.2525,0.004920
2.2550,0.013981
2.2575,0.000000
2.2600,0.005738
2.2625,0.000000
2.2650,0.014023
2.2675,0.000000
2.2700,0.000000
2.2725,0.000000
2.2750,0.000000
2.2775,0.006848
2.2800,0.000000
2.2825,0.011827
2.2850,0.015567
2.2875,0.000000
2.2900,0.005037
2.2925,0.004326
2.2950,0.000000
2.2975,0.003850
2.3000,0.014466
2.3025,0.000000
2.3050,0.011501
2.3075,0.000000
2.3100,0.003508
2.3125,0.009666
2.3150,0.000000
2.3175,0.000000
2.3200,0.006494
2.3225,0.002289
2.3250,0.015952
2.3275,0.000000
2.3300,0.017599
2.3325,0.017217
2.3350,0.000000
2.3375,0.000000
2.3400,0.000000
2.3425,0.019572
2.3450,0.000000
2.3475,0.000000
2.3500,0.007873
2.3525,0.000000
2.3550,0.006464
2.3575,0.003941
2.3600,0.004704
2.3625,0.008752
2.3650,0.000000
2.3675,0.010136
2.3700,0.000000
2.3725,0.003659
2.3750,0.000000
2.3775,0.000000
2.3800,0.007459
2.3825,0.000000
2.3850,0.000000
2.3875,0.009898
2.3900,0.000000
2.3925,0.000000
2.3950,0.012091
2.3975,0.000000
2.4000,0.019708
2.4025,0.152394
2.4050,0.172788
2.4075,0.209795
2.4100,0.247551
2.4125,0.278192
2.4150,0.275671
2.4175,0.316579
2.4200,0.385705
2.4225,0.410201
2.4250,0.459462
2.4275,0.513352
2.4300,0.548911
2.4325,0.581040
2.4350,0.653101
2.4375,0.682291
2.4400,0.727059
2.4425,0.769398
2.4450,0.829590
2.4475,0.872270
2.4500,0.912641
2.4525,0.939801
2.4550,0.956163
2.4575,0.986256
2.4600,1.004362
2.4625,1.004710
2.4650,1.006758
2.4675,0.986927
2.4700,0.975748
2.4725,0.964413
2.4750,0.966136
2.4775,0.923912
2.4800,0.886631
2.4825,0.857356
2.4850,0.813446
2.4875,0.786015
2.4900,0.736804
2.4925,0.696578
2.4950,0.657656
2.4975,0.607970
2.5000,0.548776
2.5025,0.476778
2.5050,0.427040
2.5075,0.411496
2.5100,0.336747
2.5125,0.285882
2.5150,0.262534
2.5175,0.225255
2.5200,0.199755
2.5225,0.170973
2.5250,0.135241
2.5275,0.113264
2.5300,0.097270
2.5325,0.085707
2.5350,0.085203
2.5375,0.060984
2.5400,0.071440
2.5425,0.101855
2.5450,0.105983
2.5475,0.128365
2.5500,0.131765
2.5525,0.167388
2.5550,0.202353
2.5575,0.218668
2.5600,0.227786
2.5625,0.248070
2.5650,0.244389
2.5675,0.288600
2.5700,0.275320
2.5725,0.297983
2.5750,0.285299
2.5775,0.272855
2.5800,0.300060
2.5825,0.298863
2.5850,0.263677
2.5875,0.268181
2.5900,0.250035
2.5925,0.266245
2.5950,0.233398
2.5975,0.222850
2.6000,0.202422
2.6025,0.204476
2.6050,0.177047
2.6075,0.159373
2.6100,0.143412
2.6125,0.119925
2.6150,0.143281
2.6175,0.122812
2.6200,0.106454
2.6225,0.091655
2.6250,0.062197
2.6275,0.064056
2.6300,0.073914
2.6325,0.060355
2.6350,0.055104
2.6375,0.049917
2.6400,0.029125
2.6425,0.017395
2.6450,0.035280
2.6475,0.011206
2.6500,0.004565
2.6525,0.014310
2.6550,0.014641
2.6575,0.018446
2.6600,0.000000
2.6625,0.000000
2.6650,0.000000
2.6675,0.014819
2.6700,0.000000
2.6725,0.010582
2.6750,0.000000
2.6775,0.000000
2.6800,0.002440
2.6825,0.000000
2.6850,0.000000
2.6875,0.016052
2.6900,0.000000
2.6925,0.008038
2.6950,0.004605
2.6975,0.000000
2.7000,0.004783
2.7025,0.010562
2.7050,0.012259
2.7075,0.009999
2.7100,0.007725
2.7125,0.000000
2.7150,0.000000
2.7175,0.007479
2.7200,0.008026
2.7225,0.000000
2.7250,0.000000
2.7275,0.009792
2.7300,0.003677
2.7325,0.000000
2.7350,0.000000
2.7375,0.000664
2.7400,0.000000
2.7425,0.000000
2.7450,0.015411
2.7475,0.000000
2.7500,0.000000
2.7525,0.010119
2.7550,0.000000
2.7575,0.000000
2.7600,0.000000
2.7625,0.000000
2.7650,0.002768
2.7675,0.000000
2.7700,0.015649
2.7725,0.014404
2.7750,0.017817
2.7775,0.000235
2.7800,0.000000
2.7825,0.005368
2.7850,0.019648
2.7875,0.012528
2.7900,0.003820
2.7925,0.000000
2.7950,0.010676
2.7975,0.000000
2.8000,0.000000
2.8025,0.000000
2.8050,0.000000
2.8075,0.000000
2.8100,0.001136
2.8125,0.013750
2.8150,0.000000
2.8175,0.000000
2.8200,0.000000
2.8225,0.000000
2.8250,0.000000
2.8275,0.012600
2.8300,0.000000
2.8325,0.003671
2.8350,0.000000
2.8375,0.000000
2.8400,0.001340
2.8425,0.007884
2.8450,0.000000
2.8475,0.016334
2.8500,0.000000
2.8525,0.000452
2.8550,0.000000
2.8575,0.014706
2.8600,0.000000
2.8625,0.018426
2.8650,0.015935
2.8675,0.000000
2.8700,0.003041
2.8725,0.010686
2.8750,0.000000
2.8775,0.011408
2.8800,0.000000
2.8825,0.015804
2.8850,0.000000
2.8875,0.000000
2.8900,0.000000
2.8925,0.000000
2.8950,0.019921
2.8975,0.000000
2.9000,0.000000
2.9025,0.000000
2.9050,0.000000
2.9075,0.017402
2.9100,0.000000
2.9125,0.002769
2.9150,0.011021
2.9175,0.000000
2.9200,0.013302
2.9225,0.015658
2.9250,0.000000
2.9275,0.013963
2.9300,0.000000
2.9325,0.000000
2.9350,0.000000
2.9375,0.000000
2.9400,0.016179
2.9425,0.003850
2.9450,0.000000
2.9475,0.013500
2.9500,0.000000
2.9525,0.014405
2.9550,0.000000
2.9575,0.018553
2.9600,0.001171
2.9625,0.000000
2.9650,0.000000
2.9675,0.000000
2.9700,0.000000
2.9725,0.000000
2.9750,0.000000
2.9775,0.008422
2.9800,0.000000
2.9825,0.000000
2.9850,0.016506
2.9875,0.000000
2.9900,0.000000
2.9925,0.006720
2.9950,0.000000
2.9975,0.000000
3.0000,0.000000
3.0025,0.001760
3.0050,0.017773
3.0075,0.010467
3.0100,0.010403
3.0125,0.000000
3.0150,0.000000
3.0175,0.013041
3.0200,0.019076
3.0225,0.002038
3.0250,0.000000
3.0275,0.002883
3.0300,0.000000
3.0325,0.000000
3.0350,0.000000
3.0375,0.006246
3.0400,0.012668
3.0425,0.003032
3.0450,0.014054
3.0475,0.000000
3.0500,0.015788
3.0525,0.000000
3.0550,0.000000
3.0575,0.000000
3.0600,0.000000
3.0625,0.010880
3.0650,0.000000
3.0675,0.000000
3.0700,0.008414
3.0725,0.001077
3.0750,0.007115
3.0775,0.011738
3.0800,0.000000
3.0825,0.000000
3.0850,0.000000
3.0875,0.016637
3.0900,0.015854
3.0925,0.013292
3.0950,0.000000
3.0975,0.000000
3.1000,0.000000
3.1025,0.019645
3.1050,0.000000
3.1075,0.005919
3.1100,0.015035
3.1125,0.003574
3.1150,0.000000
3.1175,0.002623
3.1200,0.000000
3.1225,0.000000
3.1250,0.012855
3.1275,0.005537
3.1300,0.000000
3.1325,0.002507
3.1350,0.001168
3.1375,0.000000
3.1400,0.017623
3.1425,0.000000
3.1450,0.003211
3.1475,0.004766
3.1500,0.000000
3.1525,0.000000
3.1550,0.007551
3.1575,0.010584
3.1600,0.000000
3.1625,0.000000
3.1650,0.005778
3.1675,0.019514
3.1700,0.000000
3.1725,0.000000
3.1750,0.000580
3.1775,0.000000
3.1800,0.000000
3.1825,0.000000
3.1850,0.000000
3.1875,0.000000
3.1900,0.018607
3.1925,0.012636
3.1950,0.010711
3.1975,0.000000
3.2000,0.120101
3.2025,0.148204
3.2050,0.169289
3.2075,0.194749
3.2100,0.230573
3.2125,0.251716
3.2150,0.298583
3.2175,0.323644
3.2200,0.378350
3.2225,0.426984
3.2250,0.476212
3.2275,0.508067
3.2300,0.531125
3.2325,0.591554
3.2350,0.661331
3.2375,0.684537
3.2400,0.720768
3.2425,0.783185
3.2450,0.814742
3.2475,0.843530
3.2500,0.879949
3.2525,0.930857
3.2550,0.935307
3.2575,0.978140
3.2600,1.002007
3.2625,1.008132
3.2650,1.018667
3.2675,1.010931
3.2700,0.985807
3.2725,0.984288
3.2750,0.947612
3.2775,0.922432
3.2800,0.903469
3.2825,0.845898
3.2850,0.821906
3.2875,0.764621
3.2900,0.730278
3.2925,0.704527
3.2950,0.659953
3.2975,0.588913
3.3000,0.523692
3.3025,0.475027
3.3050,0.434542
3.3075,0.388481
3.3100,0.348560
3.3125,0.318384
3.3150,0.272458
3.3175,0.219450
3.3200,0.186521
3.3225,0.138867
3.3250,0.138223
3.3275,0.110569
3.3300,0.107854
3.3325,0.062718
3.3350,0.079132
3.3375,0.090545
3.3400,0.069961
3.3425,0.080933
3.3450,0.096077
3.3475,0.142343
3.3500,0.158307
3.3525,0.178595
3.3550,0.167486
3.3575,0.193248
3.3600,0.215347
3.3625,0.227722
3.3650,0.249672
3.3675,0.286267
3.3700,0.263016
3.3725,0.289046
3.3750,0.280906
3.3775,0.285901
3.3800,0.302579
3.3825,0.282583
3.3850,0.269921
3.3875,0.263472
3.3900,0.283342
3.3925,0.245049
3.3950,0.252068
3.3975,0.207842
3.4000,0.205703
3.4025,0.196109
3.4050,0.168972
3.4075,0.169382
3.4100,0.137289
3.4125,0.122836
3.4150,0.132171
3.4175,0.109523
3.4200,0.087431
3.4225,0.081645
3.4250,0.064715
3.4275,0.065293
3.4300,0.065082
3.4325,0.038461
3.4350,0.057195
3.4375,0.020655
3.4400,0.027115
3.4425,0.009038
3.4450,0.034749
3.4475,0.015847
3.4500,0.002752
3.4525,0.000000
3.4550,0.000000
3.4575,0.004314
3.4600,0.018578
3.4625,0.000000
3.4650,0.016299
3.4675,0.000000
3.4700,0.000000
3.4725,0.002508
3.4750,0.000000
3.4775,0.014236
3.4800,0.000000
3.4825,0.000000
3.4850,0.000000
3.4875,0.000000
3.4900,0.019892
3.4925,0.019289
3.4950,0.000000
3.4975,0.013954
3.5000,0.000000
3.5025,0.000000
3.5050,0.000000
3.5075,0.000000
3.5100,0.000000
3.5125,0.005899
3.5150,0.013768
3.5175,0.000000
3.5200,0.008653
3.5225,0.004359
3.5250,0.000999
3.5275,0.011813
3.5300,0.000000
3.5325,0.000000
3.5350,0.018483
3.5375,0.000000
3.5400,0.000000
3.5425,0.009861
3.5450,0.013105
3.5475,0.000000
3.5500,0.006314
3.5525,0.000000
3.5550,0.000000
3.5575,0.001575
3.5600,0.000000
3.5625,0.012599
3.5650,0.015917
3.5675,0.000000
3.5700,0.006173
3.5725,0.000000
3.5750,0.000000
3.5775,0.000000
3.5800,0.000000
3.5825,0.012942
3.5850,0.000000
3.5875,0.000000
3.5900,0.018677
3.5925,0.000000
3.5950,0.016584
3.5975,0.000000
3.6000,0.015543
3.6025,0.000000
3.6050,0.000000
3.6075,0.000000
3.6100,0.000000
3.6125,0.000000
3.6150,0.008014
3.6175,0.000000
3.6200,0.000000
3.6225,0.000000
3.6250,0.000000
3.6275,0.000000
3.6300,0.010865
3.6325,0.000000
3.6350,0.000000
3.6375,0.009945
3.6400,0.000000
3.6425,0.000000
3.6450,0.000000
3.6475,0.009416
3.6500,0.000000
3.6525,0.000000
3.6550,0.014597
3.6575,0.014702
3.6600,0.011477
3.6625,0.000000
3.6650,0.000000
3.6675,0.009643
3.6700,0.000000
3.6725,0.007890
3.6750,0.000000
3.6775,0.000000
3.6800,0.000000
3.6825,0.000000
3.6850,0.000000
3.6875,0.006469
3.6900,0.000000
3.6925,0.008850
3.6950,0.018025
3.6975,0.011174
3.7000,0.005852
3.7025,0.010985
3.7050,0.000000
3.7075,0.016262
3.7100,0.005489
3.7125,0.019955
3.7150,0.000000
3.7175,0.018475
3.7200,0.007210
3.7225,0.008531
3.7250,0.000000
3.7275,0.000000
3.7300,0.012344
3.7325,0.000000
3.7350,0.011996
3.7375,0.013070
3.7400,0.000000
3.7425,0.000021
3.7450,0.000000
3.7475,0.000000
3.7500,0.014440
3.7525,0.000000
3.7550,0.011259
3.7575,0.000000
3.7600,0.007955
3.7625,0.004013
3.7650,0.000000
3.7675,0.000000
3.7700,0.000000
3.7725,0.000000
3.7750,0.000000
3.7775,0.000000
3.7800,0.000000
3.7825,0.019091
3.7850,0.013786
3.7875,0.000000
3.7900,0.000000
3.7925,0.009290
3.7950,0.005452
3.7975,0.003428
3.8000,0.003137
3.8025,0.000000
3.8050,0.000000
3.8075,0.011397
3.8100,0.000000
3.8125,0.000000
3.8150,0.009245
3.8175,0.000000
3.8200,0.013567
3.8225,0.002891
3.8250,0.002274
3.8275,0.000000
3.8300,0.007807
3.8325,0.000000
3.8350,0.012273
3.8375,0.000000
3.8400,0.000000
3.8425,0.000000
3.8450,0.000000
3.8475,0.007309
3.8500,0.007977
3.8525,0.017945
3.8550,0.017809
3.8575,0.000000
3.8600,0.019949
3.8625,0.011511
3.8650,0.009681
3.8675,0.000000
3.8700,0.000000
3.8725,0.008350
3.8750,0.006318
3.8775,0.017314
3.8800,0.000157
3.8825,0.012549
3.8850,0.007360
3.8875,0.002733
3.8900,0.000000
3.8925,0.000000
3.8950,0.000000
3.8975,0.007334
3.9000,0.014050
3.9025,0.000000
3.9050,0.015818
3.9075,0.013702
3.9100,0.005002
3.9125,0.009973
3.9150,0.000000
3.9175,0.000000
3.9200,0.000000
3.9225,0.000000
3.9250,0.000000
3.9275,0.018119
3.9300,0.004234
3.9325,0.008737
3.9350,0.000000
3.9375,0.000000
3.9400,0.012663
3.9425,0.000521
3.9450,0.000000
3.9475,0.000000
3.9500,0.006685
3.9525,0.011443
3.9550,0.014853
3.9575,0.000000
3.9600,0.000000
3.9625,0.000000
3.9650,0.001473
3.9675,0.000000
3.9700,0.000000
3.9725,0.018761
3.9750,0.009116
3.9775,0.000000
3.9800,0.000000
3.9825,0.013042
3.9850,0.017665
3.9875,0.004751
3.9900,0.000212
3.9925,0.004899
3.9950,0.013928
3.9975,0.000000
4.0000,0.000000
4.0025,0.138386
4.0050,0.184237
4.0075,0.199674
4.0100,0.247747
4.0125,0.240591
4.0150,0.281998
4.0175,0.349514
4.0200,0.373649
4.0225,0.418617
4.0250,0.459971
4.0275,0.487060
4.0300,0.544574
4.0325,0.596181
4.0350,0.663785
4.0375,0.694423
4.0400,0.720617
4.0425,0.771361
4.0450,0.818285
4.0475,0.854937
4.0500,0.880882
4.0525,0.918847
4.0550,0.950210
4.0575,0.983065
4.0600,0.999592
4.0625,1.014549
4.0650,1.013153
4.0675,0.992511
4.0700,1.007196
4.0725,0.957981
4.0750,0.944192
4.0775,0.925958
4.0800,0.914358
4.0825,0.865103
4.0850,0.819946
4.0875,0.769798
4.0900,0.738101
4.0925,0.707242
4.0950,0.644509
4.0975,0.603387
4.1000,0.537083
4.1025,0.500668
4.1050,0.451441
4.1075,0.382595
4.1100,0.333052
4.1125,0.320662
4.1150,0.269613
4.1175,0.202261
4.1200,0.196499
4.1225,0.149942
4.1250,0.113226
4.1275,0.087120
4.1300,0.094756
4.1325,0.088580
4.1350,0.073076
4.1375,0.080374
4.1400,0.066740
4.1425,0.108047
4.1450,0.093633
4.1475,0.119249
4.1500,0.140124
4.1525,0.151786
4.1550,0.203230
4.1575,0.206310
4.1600,0.216528
4.1625,0.259327
4.1650,0.260669
4.1675,0.262108
4.1700,0.290257
4.1725,0.279290
4.1750,0.285531
4.1775,0.292203
4.1800,0.304395
4.1825,0.291233
4.1850,0.292944
4.1875,0.253741
4.1900,0.275771
4.1925,0.234296
4.1950,0.255976
4.1975,0.227429
4.2000,0.214265
4.2025,0.204711
4.2050,0.171551
4.2075,0.162739
4.2100,0.135182
4.2125,0.131511
4.2150,0.130333
4.2175,0.108729
4.2200,0.109988
4.2225,0.069707
4.2250,0.064577
4.2275,0.059809
4.2300,0.040471
4.2325,0.051717
4.2350,0.030404
4.2375,0.048353
4.2400,0.023297
4.2425,0.018921
4.2450,0.021065
4.2475,0.015261
4.2500,0.030680
4.2525,0.013644
4.2550,0.006102
4.2575,0.008166
4.2600,0.011649
4.2625,0.000000
4.2650,0.000000
4.2675,0.000000
4.2700,0.018777
4.2725,0.000000
4.2750,0.000000
4.2775,0.016945
4.2800,0.000000
4.2825,0.000000
4.2850,0.005380
4.2875,0.012247
4.2900,0.006294
4.2925,0.018219
4.2950,0.000000
4.2975,0.009508
4.3000,0.009715
4.3025,0.000000
4.3050,0.007845
4.3075,0.000000
4.3100,0.018773
4.3125,0.002284
4.3150,0.000000
4.3175,0.006905
4.3200,0.000000
4.3225,0.000000
4.3250,0.017497
4.3275,0.010210
4.3300,0.000000
4.3325,0.012405
4.3350,0.010021
4.3375,0.000000
4.3400,0.016715
4.3425,0.001542
4.3450,0.017342
4.3475,0.002979
4.3500,0.015304
4.3525,0.005614
4.3550,0.007891
4.3575,0.016254
4.3600,0.001109
4.3625,0.000000
4.3650,0.011987
4.3675,0.000000
4.3700,0.000000
4.3725,0.018061
4.3750,0.000000
4.3775,0.011040
4.3800,0.000000
4.3825,0.000000
4.3850,0.011919
4.3875,0.016735
4.3900,0.010645
4.3925,0.000000
4.3950,0.009626
4.3975,0.000000
4.4000,0.000000
4.4025,0.000000
4.4050,0.000000
4.4075,0.005147
4.4100,0.000000
4.4125,0.011289
4.4150,0.000000
4.4175,0.000000
4.4200,0.017980
4.4225,0.017871
4.4250,0.001125
4.4275,0.000000
4.4300,0.013475
4.4325,0.000000
4.4350,0.000000
4.4375,0.000000
4.4400,0.019966
4.4425,0.000000
4.4450,0.011484
4.4475,0.000000
4.4500,0.007158
4.4525,0.000000
4.4550,0.000000
4.4575,0.013872
4.4600,0.000000
4.4625,0.015107
4.4650,0.000000
4.4675,0.015705
4.4700,0.000000
4.4725,0.009735
4.4750,0.008175
4.4775,0.003399
4.4800,0.000000
4.4825,0.000000
4.4850,0.009550
4.4875,0.019064
4.4900,0.000000
4.4925,0.016125
4.4950,0.000000
4.4975,0.000000
4.5000,0.000000
4.5025,0.011715
4.5050,0.000000
4.5075,0.011507
4.5100,0.008614
4.5125,0.000000
4.5150,0.000000
4.5175,0.000000
4.5200,0.000000
4.5225,0.003530
4.5250,0.000000
4.5275,0.018571
4.5300,0.000000
4.5325,0.000000
4.5350,0.008789
4.5375,0.000000
4.5400,0.000000
4.5425,0.004422
4.5450,0.004707
4.5475,0.004440
4.5500,0.000000
4.5525,0.014949
4.5550,0.007338
4.5575,0.012119
4.5600,0.001210
4.5625,0.000000
4.5650,0.000000
4.5675,0.000000
4.5700,0.007033
4.5725,0.000000
4.5750,0.000000
4.5775,0.004091
4.5800,0.000000
4.5825,0.005351
4.5850,0.019758
4.5875,0.000000
4.5900,0.000000
4.5925,0.000622
4.5950,0.000000
4.5975,0.012098
4.6000,0.008978
4.6025,0.000000
4.6050,0.018264
4.6075,0.000000
4.6100,0.004178
4.6125,0.000000
4.6150,0.003635
4.6175,0.005766
4.6200,0.000000
4.6225,0.007011
4.6250,0.000000
4.6275,0.011546
4.6300,0.000000
4.6325,0.000000
4.6350,0.000000
4.6375,0.011582
4.6400,0.015209
4.6425,0.012269
4.6450,0.000000
4.6475,0.005741
4.6500,0.015880
4.6525,0.000886
4.6550,0.000283
4.6575,0.000000
4.6600,0.000000
4.6625,0.000000
4.6650,0.002208
4.6675,0.000000
4.6700,0.015300
4.6725,0.000000
4.6750,0.003807
4.6775,0.018345
4.6800,0.017826
4.6825,0.013519
4.6850,0.013769
4.6875,0.001787
4.6900,0.000000
4.6925,0.000000
4.6950,0.009651
4.6975,0.000000
4.7000,0.009492
4.7025,0.000000
4.7050,0.000000
4.7075,0.001876
4.7100,0.017862
4.7125,0.015505
4.7150,0.000000
4.7175,0.000000
4.7200,0.000000
4.7225,0.006300
4.7250,0.009934
4.7275,0.010085
4.7300,0.000000
4.7325,0.000000
4.7350,0.000000
4.7375,0.002333
4.7400,0.000000
4.7425,0.000000
4.7450,0.000000
4.7475,0.000000
4.7500,0.017726
4.7525,0.000000
4.7550,0.013451
4.7575,0.000000
4.7600,0.000000
4.7625,0.003865
4.7650,0.018251
4.7675,0.002415
4.7700,0.013176
4.7725,0.015483
4.7750,0.000000
4.7775,0.000000
4.7800,0.000000
4.7825,0.000000
4.7850,0.000000
4.7875,0.000000
4.7900,0.000000
4.7925,0.004459
4.7950,0.000000
4.7975,0.000000
4.8000,0.008813
4.8025,0.130831
4.8050,0.153959
4.8075,0.215585
4.8100,0.246029
4.8125,0.243962
4.8150,0.308496
4.8175,0.346453
4.8200,0.354805
4.8225,0.395490
4.8250,0.459572
4.8275,0.503845
4.8300,0.548709
4.8325,0.596562
4.8350,0.655540
4.8375,0.686715
4.8400,0.722311
4.8425,0.786820
4.8450,0.841545
4.8475,0.862504
4.8500,0.887395
4.8525,0.907913
4.8550,0.948447
4.8575,0.958296
4.8600,1.005319
4.8625,0.999350
4.8650,0.984046
4.8675,0.990183
4.8700,0.984370
4.8725,0.972137
4.8750,0.935952
4.8775,0.914251
4.8800,0.899998
4.8825,0.852858
4.8850,0.833895
4.8875,0.762562
4.8900,0.717225
4.8925,0.673863
4.8950,0.623905
4.8975,0.573656
4.9000,0.542151
4.9025,0.494087
4.9050,0.456561
4.9075,0.377352
4.9100,0.339674
4.9125,0.304358
4.9150,0.259078
4.9175,0.238457
4.9200,0.195390
4.9225,0.147088
4.9250,0.111580
4.9275,0.088934
4.9300,0.079934
4.9325,0.097433
4.9350,0.064613
4.9375,0.077736
4.9400,0.079983
4.9425,0.088584
4.9450,0.102477
4.9475,0.127599
4.9500,0.151671
4.9525,0.143601
4.9550,0.179663
4.9575,0.207619
4.9600,0.222034
4.9625,0.250771
4.9650,0.273706
4.9675,0.267137
4.9700,0.283994
4.9725,0.287856
4.9750,0.281753
4.9775,0.304026
4.9800,0.308708
4.9825,0.275201
4.9850,0.281573
4.9875,0.272506
4.9900,0.246777
4.9925,0.255625
4.9950,0.220200
4.9975,0.236374
5.0000,0.203811
5.0025,0.183172
5.0050,0.166113
5.0075,0.155461
5.0100,0.169047
5.0125,0.130089
5.0150,0.105345
5.0175,0.097693
5.0200,0.082327
5.0225,0.091234
5.0250,0.075612
5.0275,0.046122
5.0300,0.044535
5.0325,0.046760
5.0350,0.054811
5.0375,0.052773
5.0400,0.018374
5.0425,0.004933
5.0450,0.000554
5.0475,0.030465
5.0500,0.025299
5.0525,0.005346
5.0550,0.015576
5.0575,0.012266
5.0600,0.023037
5.0625,0.001993
5.0650,0.000000
5.0675,0.008217
5.0700,0.000000
5.0725,0.006314
5.0750,0.000749
5.0775,0.009988
5.0800,0.000000
5.0825,0.011379
5.0850,0.000000
5.0875,0.000000
5.0900,0.000000
5.0925,0.000000
5.0950,0.000000
5.0975,0.002048
5.1000,0.005235
5.1025,0.000000
5.1050,0.000000
5.1075,0.009255
5.1100,0.005999
5.1125,0.008622
5.1150,0.000000
5.1175,0.007035
5.1200,0.000000
5.1225,0.014859
5.1250,0.000000
5.1275,0.000000
5.1300,0.000000
5.1325,0.000000
5.1350,0.001672
5.1375,0.000000
5.1400,0.000000
5.1425,0.018622
5.1450,0.000000
5.1475,0.017865
5.1500,0.010759
5.1525,0.000000
5.1550,0.000000
5.1575,0.007242
5.1600,0.002336
5.1625,0.000000
5.1650,0.000000
5.1675,0.000000
5.1700,0.000000
5.1725,0.000000
5.1750,0.001774
5.1775,0.000000
5.1800,0.019691
5.1825,0.002930
5.1850,0.010047
5.1875,0.000000
5.1900,0.004179
5.1925,0.000000
5.1950,0.009881
5.1975,0.019475
5.2000,0.000000
5.2025,0.000000
5.2050,0.007511
5.2075,0.004431
5.2100,0.000000
5.2125,0.002833
5.2150,0.000000
5.2175,0.000000
5.2200,0.000000
5.2225,0.002510
5.2250,0.013207
5.2275,0.000000
5.2300,0.013999
5.2325,0.000000
5.2350,0.016943
5.2375,0.000000
5.2400,0.000000
5.2425,0.012645
5.2450,0.006350
5.2475,0.000000
5.2500,0.012193
5.2525,0.009876
5.2550,0.012965
5.2575,0.019482
5.2600,0.000000
5.2625,0.016123
5.2650,0.001397
5.2675,0.004617
5.2700,0.000000
5.2725,0.000000
5.2750,0.001304
5.2775,0.000000
5.2800,0.000000
5.2825,0.018673
5.2850,0.017577
5.2875,0.000000
5.2900,0.000000
5.2925,0.000000
5.2950,0.014962
5.2975,0.017279
5.3000,0.000000
5.3025,0.000000
5.3050,0.013415
5.3075,0.000000
5.3100,0.000000
5.3125,0.000000
5.3150,0.000000
5.3175,0.000000
5.3200,0.001419
5.3225,0.000000
5.3250,0.000000
5.3275,0.000000
5.3300,0.013188
5.3325,0.012821
5.3350,0.000000
5.3375,0.004610
5.3400,0.008840
5.3425,0.012442
5.3450,0.000000
5.3475,0.000000
5.3500,0.000000
5.3525,0.008568
5.3550,0.000000
5.3575,0.019962
5.3600,0.000000
5.3625,0.000000
5.3650,0.000000
5.3675,0.000000
5.3700,0.000000
5.3725,0.015815
5.3750,0.000000
5.3775,0.014525
5.3800,0.000000
5.3825,0.019625
5.3850,0.000000
5.3875,0.000000
5.3900,0.000000
5.3925,0.012356
5.3950,0.000000
5.3975,0.000000
5.4000,0.000000
5.4025,0.014162
5.4050,0.000000
5.4075,0.015845
5.4100,0.000000
5.4125,0.003120
5.4150,0.000000
5.4175,0.000000
5.4200,0.000297
5.4225,0.019790
5.4250,0.002799
5.4275,0.004451
5.4300,0.000000
5.4325,0.017823
5.4350,0.000000
5.4375,0.010526
5.4400,0.001245
5.4425,0.000000
5.4450,0.000000
5.4475,0.007971
5.4500,0.000000
5.4525,0.013633
5.4550,0.019901
5.4575,0.000000
5.4600,0.011026
5.4625,0.000000
5.4650,0.009637
5.4675,0.013982
5.4700,0.000000
5.4725,0.002813
5.4750,0.000000
5.4775,0.000000
5.4800,0.000000
5.4825,0.012085
5.4850,0.008958
5.4875,0.009814
5.4900,0.015530
5.4925,0.005391
5.4950,0.019213
5.4975,0.000000
5.5000,0.019640
5.5025,0.000000
5.5050,0.006698
5.5075,0.000000
5.5100,0.000000
5.5125,0.000000
5.5150,0.000000
5.5175,0.000000
5.5200,0.000000
5.5225,0.000000
5.5250,0.002766
5.5275,0.000000
5.5300,0.000000
5.5325,0.000000
5.5350,0.000000
5.5375,0.000000
5.5400,0.000000
5.5425,0.000000
5.5450,0.000000
5.5475,0.000000
5.5500,0.002460
5.5525,0.000000
5.5550,0.008420
5.5575,0.019562
5.5600,0.018373
5.5625,0.011148
5.5650,0.000000
5.5675,0.007971
5.5700,0.000000
5.5725,0.000000
5.5750,0.000000
5.5775,0.000000
5.5800,0.003398
5.5825,0.010420
5.5850,0.017378
5.5875,0.002568
5.5900,0.018394
5.5925,0.000000
5.5950,0.014457
5.5975,0.000000
5.6000,0.012684
5.6025,0.153429
5.6050,0.154785
5.6075,0.213496
5.6100,0.232370
5.6125,0.240967
5.6150,0.280650
5.6175,0.326723
5.6200,0.365022
5.6225,0.427994
5.6250,0.463842
5.6275,0.511937
5.6300,0.562984
5.6325,0.614337
5.6350,0.651677
5.6375,0.696179
5.6400,0.741551
5.6425,0.782451
5.6450,0.825849
5.6475,0.842247
5.6500,0.891441
5.6525,0.922196
5.6550,0.937597
5.6575,0.961100
5.6600,1.007392
5.6625,0.997927
5.6650,0.985174
5.6675,1.002465
5.6700,1.001781
5.6725,0.973393
5.6750,0.962972
5.6775,0.927081
5.6800,0.901097
5.6825,0.847054
5.6850,0.830080
5.6875,0.763930
5.6900,0.724604
5.6925,0.673533
5.6950,0.630720
5.6975,0.601986
5.7000,0.552101
5.7025,0.495676
5.7050,0.448732
5.7075,0.376268
5.7100,0.357883
5.7125,0.301112
5.7150,0.265932
5.7175,0.212801
5.7200,0.168897
5.7225,0.173196
5.7250,0.124612
5.7275,0.102028
5.7300,0.105341
5.7325,0.083414
5.7350,0.071322
5.7375,0.069897
5.7400,0.067891
5.7425,0.107936
5.7450,0.106440
5.7475,0.135909
5.7500,0.127399
5.7525,0.150683
5.7550,0.186863
5.7575,0.206939
5.7600,0.242567
5.7625,0.249946
5.7650,0.265114
5.7675,0.252370
5.7700,0.271179
5.7725,0.273884
5.7750,0.272150
5.7775,0.273635
5.7800,0.298721
5.7825,0.284879
5.7850,0.284634
5.7875,0.293283
5.7900,0.275814
5.7925,0.270675
5.7950,0.259822
5.7975,0.209443
5.8000,0.210045
5.8025,0.184385
5.8050,0.193986
5.8075,0.183564
5.8100,0.170831
5.8125,0.122712
5.8150,0.124789
5.8175,0.113684
5.8200,0.092655
5.8225,0.081613
5.8250,0.091646
5.8275,0.082748
5.8300,0.061728
5.8325,0.030233
5.8350,0.030491
5.8375,0.053681
5.8400,0.033048
5.8425,0.024965
5.8450,0.039547
5.8475,0.022474
5.8500,0.023563
5.8525,0.023923
5.8550,0.000000
5.8575,0.018880
5.8600,0.005946
5.8625,0.001263
5.8650,0.003000
5.8675,0.004388
5.8700,0.000000
5.8725,0.021478
5.8750,0.000000
5.8775,0.018132
5.8800,0.000000
5.8825,0.000000
5.8850,0.000000
5.8875,0.000000
5.8900,0.000000
5.8925,0.015670
5.8950,0.000000
5.8975,0.000000
5.9000,0.000000
5.9025,0.005413
5.9050,0.007652
5.9075,0.000000
5.9100,0.000000
5.9125,0.001553
5.9150,0.008385
5.9175,0.000000
5.9200,0.000000
5.9225,0.014126
5.9250,0.014743
5.9275,0.000000
5.9300,0.000000
5.9325,0.000000
5.9350,0.016013
5.9375,0.003642
5.9400,0.016649
5.9425,0.011489
5.9450,0.000000
5.9475,0.000000
5.9500,0.012136
5.9525,0.014746
5.9550,0.004100
5.9575,0.009310
5.9600,0.000000
5.9625,0.015432
5.9650,0.018199
5.9675,0.008000
5.9700,0.011999
5.9725,0.000000
5.9750,0.002213
5.9775,0.000000
5.9800,0.000000
5.9825,0.000000
5.9850,0.007940
5.9875,0.000000
5.9900,0.003731
5.9925,0.008725
5.9950,0.017427
5.9975,0.000000
6.0000,0.016266
6.0025,0.000000
6.0050,0.000000
6.0075,0.008724
6.0100,0.000000
6.0125,0.000000
6.0150,0.000000
6.0175,0.013225
6.0200,0.014214
6.0225,0.015477
6.0250,0.000000
6.0275,0.003527
6.0300,0.001887
6.0325,0.000000
6.0350,0.012174
6.0375,0.000000
6.0400,0.007371
6.0425,0.000000
6.0450,0.000424
6.0475,0.000000
6.0500,0.000000
6.0525,0.017070
6.0550,0.006663
6.0575,0.018796
6.0600,0.000000
6.0625,0.006110
6.0650,0.000000
6.0675,0.000000
6.0700,0.002868
6.0725,0.000000
6.0750,0.017234
6.0775,0.000000
6.0800,0.000000
6.0825,0.000000
6.0850,0.000000
6.0875,0.012052
6.0900,0.000000
6.0925,0.007752
6.0950,0.000000
6.0975,0.014238
6.1000,0.002879
6.1025,0.000000
6.1050,0.019923
6.1075,0.000000
6.1100,0.017394
6.1125,0.000000
6.1150,0.000000
6.1175,0.000000
6.1200,0.013125
6.1225,0.000000
6.1250,0.000000
6.1275,0.000000
6.1300,0.000689
6.1325,0.000000
6.1350,0.000000
6.1375,0.000000
6.1400,0.004658
6.1425,0.000000
6.1450,0.003588
6.1475,0.000000
6.1500,0.015636
6.1525,0.013271
6.1550,0.009257
6.1575,0.000000
6.1600,0.009952
6.1625,0.000000
6.1650,0.001822
6.1675,0.006593
6.1700,0.003145
6.1725,0.000000
6.1750,0.000574
6.1775,0.016378
6.1800,0.003554
6.1825,0.002304
6.1850,0.000000
6.1875,0.000000
6.1900,0.000000
6.1925,0.016133
6.1950,0.004396
6.1975,0.000000
6.2000,0.000000
6.2025,0.007834
6.2050,0.000000
6.2075,0.011393
6.2100,0.015738
6.2125,0.000000
6.2150,0.000000
6.2175,0.002064
6.2200,0.008944
6.2225,0.000000
6.2250,0.015270
6.2275,0.000000
6.2300,0.000000
6.2325,0.000000
6.2350,0.000000
6.2375,0.013341
6.2400,0.000000
6.2425,0.011806
6.2450,0.017833
6.2475,0.000000
6.2500,0.006648
6.2525,0.000000
6.2550,0.019241
6.2575,0.000000
6.2600,0.008398
6.2625,0.005943
6.2650,0.000000
6.2675,0.000000
6.2700,0.011183
6.2725,0.013285
6.2750,0.000000
6.2775,0.005826
6.2800,0.000000
6.2825,0.001135
6.2850,0.014255
6.2875,0.002832
6.2900,0.000000
6.2925,0.000000
6.2950,0.000000
6.2975,0.017124
6.3000,0.000000
6.3025,0.000000
6.3050,0.000000
6.3075,0.013453
6.3100,0.000000
6.3125,0.000000
6.3150,0.000000
6.3175,0.017555
6.3200,0.015181
6.3225,0.006809
6.3250,0.006897
6.3275,0.000000
6.3300,0.015902
6.3325,0.000000
6.3350,0.004217
6.3375,0.004079
6.3400,0.000000
6.3425,0.000683
6.3450,0.000000
6.3475,0.008099
6.3500,0.000000
6.3525,0.009917
6.3550,0.000000
6.3575,0.000000
6.3600,0.000000
6.3625,0.017707
6.3650,0.000000
6.3675,0.000000
6.3700,0.000000
6.3725,0.017975
6.3750,0.009498
6.3775,0.000000
6.3800,0.004945
6.3825,0.015105
6.3850,0.000000
6.3875,0.000000
6.3900,0.000000
6.3925,0.000000
6.3950,0.011926
6.3975,0.000000
6.4000,0.135218
6.4025,0.134069
6.4050,0.163045
6.4075,0.184423
6.4100,0.233722
6.4125,0.270747
6.4150,0.281045
6.4175,0.322595
6.4200,0.387503
6.4225,0.406522
6.4250,0.441607
6.4275,0.484851
6.4300,0.546849
6.4325,0.611146
6.4350,0.647270
6.4375,0.697582
6.4400,0.734040
6.4425,0.771145
6.4450,0.812527
6.4475,0.870185
6.4500,0.904971
6.4525,0.925836
6.4550,0.945239
6.4575,0.988743
6.4600,0.974012
6.4625,0.985672
6.4650,1.010365
6.4675,1.007870
6.4700,1.003882
6.4725,0.968390
6.4750,0.965329
6.4775,0.944211
6.4800,0.898355
6.4825,0.865584
6.4850,0.834830
6.4875,0.774916
6.4900,0.717191
6.4925,0.675394
6.4950,0.637529
6.4975,0.610642
6.5000,0.560134
6.5025,0.485826
6.5050,0.446783
6.5075,0.402861
6.5100,0.357130
6.5125,0.282564
6.5150,0.255251
6.5175,0.230059
6.5200,0.202727
6.5225,0.171155
6.5250,0.123650
6.5275,0.092414
6.5300,0.072926
6.5325,0.060667
6.5350,0.090781
6.5375,0.064121
6.5400,0.088670
6.5425,0.111493
6.5450,0.109347
6.5475,0.132695
6.5500,0.141765
6.5525,0.149671
6.5550,0.174907
6.5575,0.194036
6.5600,0.228830
6.5625,0.244742
6.5650,0.271218
6.5675,0.268823
6.5700,0.298771
6.5725,0.296517
6.5750,0.279300
6.5775,0.293299
6.5800,0.277637
6.5825,0.270656
6.5850,0.290959
6.5875,0.269584
6.5900,0.262333
6.5925,0.261087
6.5950,0.229917
6.5975,0.221406
6.6000,0.208670
6.6025,0.201239
6.6050,0.196498
6.6075,0.183061
6.6100,0.132492
6.6125,0.133520
6.6150,0.116238
6.6175,0.093964
6.6200,0.089170
6.6225,0.076237
6.6250,0.086509
6.6275,0.048199
6.6300,0.056502
6.6325,0.028775
6.6350,0.037524
6.6375,0.050844
6.6400,0.028022
6.6425,0.036909
6.6450,0.024368
6.6475,0.012305
6.6500,0.002425
6.6525,0.018518
6.6550,0.004900
6.6575,0.010273
6.6600,0.013580
6.6625,0.000000
6.6650,0.018086
6.6675,0.000000
6.6700,0.006008
6.6725,0.000000
6.6750,0.018112
6.6775,0.006145
6.6800,0.000000
6.6825,0.000000
6.6850,0.000689
6.6875,0.000074
6.6900,0.000000
6.6925,0.000000
6.6950,0.000000
6.6975,0.000000
6.7000,0.000000
6.7025,0.000000
6.7050,0.000000
6.7075,0.000000
6.7100,0.000000
6.7125,0.017718
6.7150,0.000209
6.7175,0.000000
6.7200,0.015814
6.7225,0.000000
6.7250,0.008147
6.7275,0.000000
6.7300,0.000000
6.7325,0.010999
6.7350,0.015624
6.7375,0.009988
6.7400,0.000000
6.7425,0.000000
6.7450,0.017596
6.7475,0.000000
6.7500,0.018887
6.7525,0.000000
6.7550,0.000000
6.7575,0.000000
6.7600,0.000000
6.7625,0.000000
6.7650,0.010998
6.7675,0.015699
6.7700,0.011871
6.7725,0.000000
6.7750,0.000000
6.7775,0.019507
6.7800,0.000000
6.7825,0.000000
6.7850,0.000000
6.7875,0.000000
6.7900,0.000000
6.7925,0.003079
6.7950,0.012340
6.7975,0.000000
6.8000,0.017784
6.8025,0.004992
6.8050,0.000000
6.8075,0.019042
6.8100,0.000000
6.8125,0.000000
6.8150,0.003082
6.8175,0.000246
6.8200,0.000000
6.8225,0.000000
6.8250,0.000000
6.8275,0.000000
6.8300,0.000000
6.8325,0.000000
6.8350,0.011900
6.8375,0.004715
6.8400,0.006125
6.8425,0.000000
6.8450,0.005037
6.8475,0.000000
6.8500,0.000000
6.8525,0.000000
6.8550,0.000143
6.8575,0.019082
6.8600,0.000275
6.8625,0.010460
6.8650,0.015237
6.8675,0.000000
6.8700,0.000000
6.8725,0.000000
6.8750,0.006038
6.8775,0.000000
6.8800,0.019597
6.8825,0.000000
6.8850,0.000000
6.8875,0.000000
6.8900,0.000000
6.8925,0.010384
6.8950,0.000000
6.8975,0.000000
6.9000,0.008656
6.9025,0.008319
6.9050,0.000000
6.9075,0.010716
6.9100,0.001954
6.9125,0.000000
6.9150,0.005285
6.9175,0.017764
6.9200,0.000000
6.9225,0.000000
6.9250,0.002183
6.9275,0.018800
6.9300,0.000000
6.9325,0.000000
6.9350,0.000000
6.9375,0.000000
6.9400,0.009946
6.9425,0.000905
6.9450,0.000000
6.9475,0.011158
6.9500,0.000000
6.9525,0.015702
6.9550,0.000000
6.9575,0.000000
6.9600,0.006843
6.9625,0.010440
6.9650,0.005148
6.9675,0.019037
6.9700,0.000000
6.9725,0.000862
6.9750,0.000000
6.9775,0.000000
6.9800,0.000000
6.9825,0.000000
6.9850,0.018105
6.9875,0.008901
6.9900,0.000000
6.9925,0.003592
6.9950,0.001633
6.9975,0.000000
7.0000,0.007330
7.0025,0.011092
7.0050,0.003421
7.0075,0.003842
7.0100,0.005570
7.0125,0.005770
7.0150,0.005960
7.0175,0.012215
7.0200,0.005379
7.0225,0.000000
7.0250,0.000000
7.0275,0.000000
7.0300,0.000000
7.0325,0.000000
7.0350,0.000000
7.0375,0.000000
7.0400,0.016371
7.0425,0.000000
7.0450,0.000000
7.0475,0.007887
7.0500,0.000000
7.0525,0.000000
7.0550,0.000881
7.0575,0.013976
7.0600,0.004594
7.0625,0.009569
7.0650,0.004515
7.0675,0.000000
7.0700,0.000000
7.0725,0.000000
7.0750,0.000000
7.0775,0.001809
7.0800,0.000000
7.0825,0.000000
7.0850,0.000000
7.0875,0.016853
7.0900,0.017532
7.0925,0.002535
7.0950,0.000840
7.0975,0.000000
7.1000,0.016861
7.1025,0.000000
7.1050,0.014768
7.1075,0.013889
7.1100,0.018335
7.1125,0.000000
7.1150,0.000000
7.1175,0.017157
7.1200,0.016273
7.1225,0.000086
7.1250,0.008654
7.1275,0.012442
7.1300,0.004061
7.1325,0.005860
7.1350,0.013679
7.1375,0.000000
7.1400,0.000000
7.1425,0.000000
7.1450,0.011627
7.1475,0.011362
7.1500,0.000000
7.1525,0.000000
7.1550,0.000000
7.1575,0.014076
7.1600,0.000000
7.1625,0.006429
7.1650,0.008370
7.1675,0.017371
7.1700,0.000000
7.1725,0.000000
7.1750,0.019812
7.1775,0.000000
7.1800,0.005924
7.1825,0.000000
7.1850,0.013811
7.1875,0.000000
7.1900,0.000000
7.1925,0.000000
7.1950,0.014303
7.1975,0.000000
7.2000,0.000000
7.2025,0.140644
7.2050,0.175064
7.2075,0.179383
7.2100,0.217041
7.2125,0.272443
7.2150,0.292254
7.2175,0.346332
7.2200,0.385450
7.2225,0.401460
7.2250,0.461698
7.2275,0.496107
7.2300,0.559762
7.2325,0.608630
7.2350,0.657402
7.2375,0.685687
7.2400,0.755483
7.2425,0.785792
7.2450,0.822905
7.2475,0.842329
7.2500,0.879939
7.2525,0.942973
7.2550,0.938950
7.2575,0.978487
7.2600,0.973386
7.2625,0.997974
7.2650,0.993447
7.2675,1.004915
7.2700,0.995126
7.2725,0.983770
7.2750,0.943100
7.2775,0.925407
7.2800,0.892476
7.2825,0.866337
7.2850,0.814473
7.2875,0.776535
7.2900,0.751939
7.2925,0.708584
7.2950,0.636911
7.2975,0.581889
7.3000,0.539453
7.3025,0.504929
7.3050,0.449542
7.3075,0.380642
7.3100,0.366866
7.3125,0.320357
7.3150,0.252115
7.3175,0.214996
7.3200,0.202578
7.3225,0.143857
7.3250,0.140023
7.3275,0.086110
7.3300,0.104647
7.3325,0.063332
7.3350,0.060565
7.3375,0.087678
7.3400,0.100519
7.3425,0.104647
7.3450,0.095028
7.3475,0.126473
7.3500,0.129217
7.3525,0.177205
7.3550,0.193876
7.3575,0.218677
7.3600,0.231525
7.3625,0.243051
7.3650,0.268348
7.3675,0.267512
7.3700,0.273716
7.3725,0.274891
7.3750,0.305783
7.3775,0.275280
7.3800,0.308662
7.3825,0.282926
7.3850,0.269373
7.3875,0.254928
7.3900,0.245788
7.3925,0.268505
7.3950,0.245565
7.3975,0.207023
7.4000,0.195387
7.4025,0.206625
7.4050,0.174977
7.4075,0.149968
7.4100,0.145983
7.4125,0.126653
7.4150,0.107273
7.4175,0.115803
7.4200,0.080078
7.4225,0.090498
7.4250,0.094028
7.4275,0.080995
7.4300,0.053309
7.4325,0.049030
7.4350,0.055989
7.4375,0.024025
7.4400,0.024000
7.4425,0.018652
7.4450,0.021349
7.4475,0.000972
7.4500,0.000000
7.4525,0.000000
7.4550,0.000000
7.4575,0.000000
7.4600,0.000000
7.4625,0.000000
7.4650,0.017645
7.4675,0.000000
7.4700,0.012577
7.4725,0.000000
7.4750,0.017093
7.4775,0.000000
7.4800,0.000000
7.4825,0.000000
7.4850,0.000000
7.4875,0.014354
7.4900,0.018084
7.4925,0.000000
7.4950,0.000000
7.4975,0.014244
7.5000,0.002444
7.5025,0.006978
7.5050,0.002304
7.5075,0.019480
7.5100,0.007932
7.5125,0.000000
7.5150,0.000000
7.5175,0.000000
7.5200,0.000000
7.5225,0.000152
7.5250,0.000000
7.5275,0.007871
7.5300,0.001446
7.5325,0.000000
7.5350,0.000000
7.5375,0.013105
7.5400,0.018762
7.5425,0.000000
7.5450,0.016288
7.5475,0.012868
7.5500,0.010465
7.5525,0.010643
7.5550,0.000000
7.5575,0.005742
7.5600,0.000000
7.5625,0.013598
7.5650,0.000000
7.5675,0.000000
7.5700,0.013961
7.5725,0.000000
7.5750,0.007235
7.5775,0.000000
7.5800,0.016107
7.5825,0.015882
7.5850,0.000000
7.5875,0.003262
7.5900,0.018704
7.5925,0.000471
7.5950,0.000000
7.5975,0.000000
7.6000,0.004448
7.6025,0.001243
7.6050,0.000000
7.6075,0.016399
7.6100,0.005019
7.6125,0.000000
7.6150,0.000000
7.6175,0.018765
7.6200,0.000000
7.6225,0.000000
7.6250,0.000000
7.6275,0.000000
7.6300,0.000000
7.6325,0.000000
7.6350,0.001204
7.6375,0.000460
7.6400,0.009183
7.6425,0.004464
7.6450,0.011516
7.6475,0.019937
7.6500,0.000000
7.6525,0.012379
7.6550,0.010981
7.6575,0.007603
7.6600,0.012851
7.6625,0.000000
7.6650,0.008698
7.6675,0.013616
7.6700,0.000000
7.6725,0.016328
7.6750,0.017798
7.6775,0.000000
7.6800,0.000000
7.6825,0.000000
7.6850,0.004371
7.6875,0.015544
7.6900,0.000000
7.6925,0.000000
7.6950,0.010862
7.6975,0.017300
7.7000,0.000000
7.7025,0.013293
7.7050,0.010145
7.7075,0.006662
7.7100,0.019231
7.7125,0.000000
7.7150,0.000000
7.7175,0.014579
7.7200,0.000000
7.7225,0.002593
7.7250,0.000220
7.7275,0.005157
7.7300,0.000000
7.7325,0.000285
7.7350,0.010566
7.7375,0.000000
7.7400,0.000000
7.7425,0.000000
7.7450,0.015908
7.7475,0.000000
7.7500,0.000000
7.7525,0.000000
7.7550,0.004713
7.7575,0.000000
7.7600,0.000000
7.7625,0.000000
7.7650,0.000000
7.7675,0.000000
7.7700,0.000000
7.7725,0.000000
7.7750,0.019183
7.7775,0.000000
7.7800,0.000000
7.7825,0.014440
7.7850,0.007126
7.7875,0.015085
7.7900,0.000000
7.7925,0.000000
7.7950,0.000000
7.7975,0.000000
7.8000,0.000000
7.8025,0.006828
7.8050,0.011632
7.8075,0.000000
7.8100,0.000000
7.8125,0.012870
7.8150,0.018379
7.8175,0.000000
7.8200,0.007810
7.8225,0.000000
7.8250,0.000000
7.8275,0.019644
7.8300,0.005953
7.8325,0.000000
7.8350,0.000000
7.8375,0.009646
7.8400,0.006864
7.8425,0.000000
7.8450,0.003377
7.8475,0.007603
7.8500,0.003714
7.8525,0.002115
7.8550,0.000000
7.8575,0.008034
7.8600,0.002822
7.8625,0.000000
7.8650,0.000000
7.8675,0.000000
7.8700,0.000000
7.8725,0.000000
7.8750,0.018191
7.8775,0.012308
7.8800,0.009591
7.8825,0.000000
7.8850,0.000484
7.8875,0.000000
7.8900,0.007056
7.8925,0.000000
7.8950,0.008065
7.8975,0.000000
7.9000,0.000342
7.9025,0.000000
7.9050,0.017318
7.9075,0.000000
7.9100,0.007299
7.9125,0.000000
7.9150,0.000000
7.9175,0.000000
7.9200,0.000000
7.9225,0.005898
7.9250,0.014368
7.9275,0.012101
7.9300,0.015945
7.9325,0.000000
7.9350,0.009778
7.9375,0.018380
7.9400,0.007478
7.9425,0.000000
7.9450,0.000000
7.9475,0.008628
7.9500,0.000000
7.9525,0.019556
7.9550,0.002344
7.9575,0.002188
7.9600,0.000000
7.9625,0.000000
7.9650,0.000000
7.9675,0.013247
7.9700,0.000000
7.9725,0.000000
7.9750,0.000000
7.9775,0.019106
7.9800,0.004537
7.9825,0.003420
7.9850,0.002867
7.9875,0.011377
7.9900,0.000000
7.9925,0.000000
7.9950,0.000000
7.9975,0.001284
8.0000,0.000000
8.0025,0.141045
8.0050,0.167171
8.0075,0.189392
8.0100,0.209278
8.0125,0.245193
8.0150,0.276856
8.0175,0.350199
8.0200,0.382067
8.0225,0.423204
8.0250,0.452940
8.0275,0.519216
8.0300,0.561173
8.0325,0.608431
8.0350,0.637146
8.0375,0.675261
8.0400,0.721581
8.0425,0.799285
8.0450,0.818314
8.0475,0.874698
8.0500,0.908299
8.0525,0.937749
8.0550,0.946310
8.0575,0.967602
8.0600,0.973714
8.0625,1.010224
8.0650,1.008248
8.0675,1.012116
8.0700,0.999966
8.0725,0.986174
8.0750,0.956366
8.0775,0.930436
8.0800,0.904163
8.0825,0.867203
8.0850,0.835337
8.0875,0.769804
8.0900,0.745801
8.0925,0.702244
8.0950,0.641446
8.0975,0.597994
8.1000,0.523263
8.1025,0.493373
8.1050,0.435834
8.1075,0.413131
8.1100,0.356547
8.1125,0.306129
8.1150,0.261601
8.1175,0.232379
8.1200,0.174156
8.1225,0.154192
8.1250,0.145058
8.1275,0.089132
8.1300,0.102453
8.1325,0.065548
8.1350,0.058255
8.1375,0.067829
8.1400,0.081643
8.1425,0.072786
8.1450,0.107311
8.1475,0.105757
8.1500,0.124212
8.1525,0.169925
8.1550,0.193845
8.1575,0.190625
8.1600,0.241358
8.1625,0.232763
8.1650,0.252832
8.1675,0.259451
8.1700,0.282972
8.1725,0.268150
8.1750,0.294174
8.1775,0.311846
8.1800,0.274997
8.1825,0.272076
8.1850,0.288706
8.1875,0.282831
8.1900,0.245634
8.1925,0.234563
8.1950,0.241842
8.1975,0.241063
8.2000,0.225902
8.2025,0.193432
8.2050,0.190751
8.2075,0.180303
8.2100,0.163255
8.2125,0.126253
8.2150,0.105471
8.2175,0.116463
8.2200,0.093581
8.2225,0.079783
8.2250,0.088033
8.2275,0.059648
8.2300,0.056604
8.2325,0.037634
8.2350,0.045963
8.2375,0.052993
8.2400,0.021685
8.2425,0.008088
8.2450,0.036817
8.2475,0.009493
8.2500,0.029759
8.2525,0.000000
8.2550,0.018582
8.2575,0.016460
8.2600,0.015835
8.2625,0.000000
8.2650,0.000505
8.2675,0.000000
8.2700,0.000000
8.2725,0.000000
8.2750,0.009713
8.2775,0.000835
8.2800,0.011697
8.2825,0.003309
8.2850,0.000000
8.2875,0.011163
8.2900,0.017342
8.2925,0.002941
8.2950,0.009663
8.2975,0.000000
8.3000,0.012409
8.3025,0.000000
8.3050,0.014766
8.3075,0.000000
8.3100,0.000000
8.3125,0.006313
8.3150,0.000000
8.3175,0.004857
8.3200,0.000000
8.3225,0.000000
8.3250,0.006155
8.3275,0.013383
8.3300,0.012799
8.3325,0.009353
8.3350,0.000964
8.3375,0.005258
8.3400,0.000000
8.3425,0.008722
8.3450,0.000000
8.3475,0.000000
8.3500,0.000000
8.3525,0.010229
8.3550,0.000000
8.3575,0.009637
8.3600,0.000000
8.3625,0.000000
8.3650,0.002622
8.3675,0.018954
8.3700,0.000000
8.3725,0.000000
8.3750,0.006975
8.3775,0.001424
8.3800,0.019115
8.3825,0.013220
8.3850,0.000000
8.3875,0.000000
8.3900,0.000000
8.3925,0.007544
8.3950,0.000000
8.3975,0.005290
8.4000,0.000000
8.4025,0.000000
8.4050,0.000000
8.4075,0.001811
8.4100,0.000000
8.4125,0.007467
8.4150,0.000000
8.4175,0.000000
8.4200,0.006811
8.4225,0.008244
8.4250,0.015637
8.4275,0.000000
8.4300,0.004281
8.4325,0.002497
8.4350,0.000000
8.4375,0.002554
8.4400,0.000000
8.4425,0.000000
8.4450,0.000000
8.4475,0.017173
8.4500,0.001949
8.4525,0.008777
8.4550,0.000000
8.4575,0.000000
8.4600,0.000000
8.4625,0.000000
8.4650,0.018295
8.4675,0.019087
8.4700,0.003529
8.4725,0.010982
8.4750,0.002589
8.4775,0.000000
8.4800,0.013148
8.4825,0.000000
8.4850,0.001968
8.4875,0.006268
8.4900,0.009405
8.4925,0.000000
8.4950,0.000000
8.4975,0.000000
8.5000,0.019576
8.5025,0.000000
8.5050,0.000000
8.5075,0.006571
8.5100,0.008679
8.5125,0.000000
8.5150,0.000000
8.5175,0.013722
8.5200,0.000000
8.5225,0.000000
8.5250,0.000085
8.5275,0.001347
8.5300,0.000000
8.5325,0.018832
8.5350,0.002551
8.5375,0.016997
8.5400,0.000000
8.5425,0.008535
8.5450,0.000000
8.5475,0.011855
8.5500,0.000000
8.5525,0.000000
8.5550,0.000000
8.5575,0.000000
8.5600,0.009184
8.5625,0.000000
8.5650,0.018199
8.5675,0.010670
8.5700,0.015044
8.5725,0.017168
8.5750,0.000000
8.5775,0.013115
8.5800,0.000000
8.5825,0.000000
8.5850,0.000000
8.5875,0.018085
8.5900,0.000000
8.5925,0.000000
8.5950,0.000000
8.5975,0.000000
8.6000,0.017284
8.6025,0.000000
8.6050,0.015301
8.6075,0.000000
8.6100,0.000000
8.6125,0.000000
8.6150,0.009251
8.6175,0.012853
8.6200,0.014437
8.6225,0.005306
8.6250,0.007447
8.6275,0.011920
8.6300,0.000000
8.6325,0.000000
8.6350,0.010158
8.6375,0.002667
8.6400,0.006916
8.6425,0.003508
8.6450,0.000000
8.6475,0.015182
8.6500,0.014493
8.6525,0.005493
8.6550,0.000000
8.6575,0.000038
8.6600,0.000000
8.6625,0.000000
8.6650,0.000000
8.6675,0.000000
8.6700,0.012301
8.6725,0.017344
8.6750,0.013283
8.6775,0.012088
8.6800,0.016321
8.6825,0.000000
8.6850,0.004073
8.6875,0.000000
8.6900,0.011535
8.6925,0.014919
8.6950,0.002999
8.6975,0.000000
8.7000,0.000000
8.7025,0.018273
8.7050,0.000000
8.7075,0.000000
8.7100,0.000000
8.7125,0.002569
8.7150,0.001382
8.7175,0.000000
8.7200,0.000000
8.7225,0.002137
8.7250,0.010365
8.7275,0.000000
8.7300,0.008503
8.7325,0.000000
8.7350,0.005089
8.7375,0.000000
8.7400,0.010786
8.7425,0.000000
8.7450,0.000000
8.7475,0.000000
8.7500,0.007403
8.7525,0.018494
8.7550,0.000000
8.7575,0.010559
8.7600,0.010914
8.7625,0.001929
8.7650,0.000000
8.7675,0.000000
8.7700,0.000000
8.7725,0.016442
8.7750,0.011186
8.7775,0.000000
8.7800,0.018989
8.7825,0.017832
8.7850,0.000000
8.7875,0.000000
8.7900,0.019320
8.7925,0.000000
8.7950,0.014093
8.7975,0.002110
8.8000,0.118169
8.8025,0.163161
8.8050,0.175694
8.8075,0.185463
8.8100,0.217388
8.8125,0.248141
8.8150,0.297432
8.8175,0.346463
8.8200,0.380556
8.8225,0.422141
8.8250,0.444163
8.8275,0.507695
8.8300,0.530537
8.8325,0.592187
8.8350,0.641584
8.8375,0.701070
8.8400,0.728040
8.8425,0.764511
8.8450,0.820081
8.8475,0.863306
8.8500,0.902002
8.8525,0.934303
8.8550,0.934894
8.8575,0.973351
8.8600,1.003201
8.8625,0.977811
8.8650,0.988595
8.8675,0.987987
8.8700,0.982856
8.8725,0.962240
8.8750,0.965203
8.8775,0.919063
8.8800,0.894120
8.8825,0.866073
8.8850,0.823750
8.8875,0.775738
8.8900,0.755731
8.8925,0.685515
8.8950,0.643709
8.8975,0.601223
8.9000,0.524767
8.9025,0.491550
8.9050,0.444491
8.9075,0.383839
8.9100,0.355626
8.9125,0.311522
8.9150,0.268787
8.9175,0.206973
8.9200,0.183164
8.9225,0.165053
8.9250,0.130083
8.9275,0.087495
8.9300,0.108299
8.9325,0.061458
8.9350,0.061431
8.9375,0.071841
8.9400,0.070246
8.9425,0.101306
8.9450,0.090024
8.9475,0.119063
8.9500,0.141204
8.9525,0.164474
8.9550,0.184893
8.9575,0.199649
8.9600,0.229031
8.9625,0.221767
8.9650,0.240998
8.9675,0.275658
8.9700,0.273490
8.9725,0.275436
8.9750,0.287053
8.9775,0.275260
8.9800,0.279846
8.9825,0.288499
8.9850,0.277785
8.9875,0.286806
8.9900,0.261322
8.9925,0.240909
8.9950,0.253828
8.9975,0.218290
9.0000,0.215916
9.0025,0.214553
9.0050,0.165148
9.0075,0.150080
9.0100,0.156263
9.0125,0.136461
9.0150,0.138412
9.0175,0.093211
9.0200,0.097883
9.0225,0.099486
9.0250,0.062348
9.0275,0.082676
9.0300,0.050838
9.0325,0.041231
9.0350,0.027524
9.0375,0.037510
9.0400,0.041781
9.0425,0.023107
9.0450,0.017098
9.0475,0.000000
9.0500,0.012136
9.0525,0.009810
9.0550,0.023501
9.0575,0.015783
9.0600,0.016860
9.0625,0.000000
9.0650,0.000000
9.0675,0.008004
9.0700,0.008674
9.0725,0.008803
9.0750,0.001049
9.0775,0.000000
9.0800,0.000000
9.0825,0.000000
9.0850,0.012397
9.0875,0.000000
9.0900,0.005030
9.0925,0.000000
9.0950,0.020044
9.0975,0.000000
9.1000,0.001492
9.1025,0.000000
9.1050,0.000000
9.1075,0.000000
9.1100,0.017293
9.1125,0.000000
9.1150,0.017624
9.1175,0.002467
9.1200,0.000000
9.1225,0.002102
9.1250,0.000000
9.1275,0.000000
9.1300,0.000000
9.1325,0.005740
9.1350,0.011851
9.1375,0.000000
9.1400,0.008680
9.1425,0.008645
9.1450,0.000000
9.1475,0.000000
9.1500,0.005913
9.1525,0.006428
9.1550,0.000000
9.1575,0.003674
9.1600,0.000000
9.1625,0.007768
9.1650,0.000000
9.1675,0.000000
9.1700,0.012613
9.1725,0.011098
9.1750,0.000000
9.1775,0.017063
9.1800,0.000000
9.1825,0.016053
9.1850,0.013738
9.1875,0.001833
9.1900,0.011187
9.1925,0.010935
9.1950,0.000000
9.1975,0.016090
9.2000,0.000000
9.2025,0.017447
9.2050,0.000000
9.2075,0.000000
9.2100,0.000000
9.2125,0.013940
9.2150,0.000000
9.2175,0.019359
9.2200,0.000000
9.2225,0.018425
9.2250,0.008912
9.2275,0.019753
9.2300,0.000000
9.2325,0.000000
9.2350,0.000000
9.2375,0.015768
9.2400,0.000000
9.2425,0.008141
9.2450,0.015381
9.2475,0.016156
9.2500,0.011559
9.2525,0.016523
9.2550,0.015046
9.2575,0.000000
9.2600,0.000000
9.2625,0.000000
9.2650,0.000000
9.2675,0.009986
9.2700,0.000000
9.2725,0.010121
9.2750,0.010492
9.2775,0.000000
9.2800,0.000000
9.2825,0.000000
9.2850,0.000000
9.2875,0.000000
9.2900,0.000000
9.2925,0.015244
9.2950,0.000000
9.2975,0.014324
9.3000,0.011128
9.3025,0.004746
9.3050,0.000000
9.3075,0.000000
9.3100,0.009751
9.3125,0.000000
9.3150,0.012218
9.3175,0.000000
9.3200,0.000000
9.3225,0.000000
9.3250,0.003104
9.3275,0.003386
9.3300,0.016798
9.3325,0.005640
9.3350,0.000000
9.3375,0.000000
9.3400,0.000000
9.3425,0.000000
9.3450,0.000000
9.3475,0.006617
9.3500,0.011750
9.3525,0.015755
9.3550,0.000000
9.3575,0.000410
9.3600,0.000000
9.3625,0.000000
9.3650,0.000000
9.3675,0.011891
9.3700,0.007551
9.3725,0.000000
9.3750,0.000000
9.3775,0.003304
9.3800,0.000000
9.3825,0.004882
9.3850,0.012491
9.3875,0.001414
9.3900,0.000000
9.3925,0.004476
9.3950,0.017202
9.3975,0.000003
9.4000,0.006687
9.4025,0.007292
9.4050,0.000000
9.4075,0.002772
9.4100,0.000000
9.4125,0.009319
9.4150,0.016153
9.4175,0.000000
9.4200,0.003465
9.4225,0.002238
9.4250,0.015856
9.4275,0.000000
9.4300,0.000000
9.4325,0.000270
9.4350,0.000000
9.4375,0.000000
9.4400,0.007230
9.4425,0.000000
9.4450,0.005523
9.4475,0.001635
9.4500,0.000000
9.4525,0.014381
9.4550,0.005383
9.4575,0.002250
9.4600,0.000000
9.4625,0.000000
9.4650,0.019307
9.4675,0.003845
9.4700,0.000000
9.4725,0.015046
9.4750,0.000000
9.4775,0.000000
9.4800,0.019972
9.4825,0.019998
9.4850,0.000000
9.4875,0.005105
9.4900,0.000000
9.4925,0.004677
9.4950,0.000000
9.4975,0.007856
9.5000,0.018059
9.5025,0.000000
9.5050,0.000000
9.5075,0.000000
9.5100,0.000000
9.5125,0.002348
9.5150,0.000334
9.5175,0.000000
9.5200,0.002917
9.5225,0.000000
9.5250,0.002973
9.5275,0.000000
9.5300,0.000000
9.5325,0.006452
9.5350,0.000000
9.5375,0.000000
9.5400,0.018351
9.5425,0.000000
9.5450,0.000000
9.5475,0.019230
9.5500,0.000000
9.5525,0.000000
9.5550,0.000000
9.5575,0.003953
9.5600,0.000000
9.5625,0.000000
9.5650,0.000000
9.5675,0.017425
9.5700,0.010309
9.5725,0.000000
9.5750,0.007404
9.5775,0.000000
9.5800,0.007480
9.5825,0.000000
9.5850,0.000000
9.5875,0.004654
9.5900,0.000000
9.5925,0.006920
9.5950,0.011661
9.5975,0.007824
9.6000,0.019946
9.6025,0.134881
9.6050,0.176962
9.6075,0.198614
9.6100,0.228323
9.6125,0.240427
9.6150,0.276557
9.6175,0.327388
9.6200,0.364121
9.6225,0.408661
9.6250,0.444196
9.6275,0.515061
9.6300,0.547305
9.6325,0.601541
9.6350,0.625792
9.6375,0.697878
9.6400,0.730560
9.6425,0.774364
9.6450,0.829534
9.6475,0.844167
9.6500,0.913005
9.6525,0.936776
9.6550,0.972284
9.6575,0.993002
9.6600,0.990048
9.6625,0.996128
9.6650,1.008319
9.6675,0.991045
9.6700,1.008250
9.6725,0.958611
9.6750,0.949690
9.6775,0.911052
9.6800,0.883049
9.6825,0.880841
9.6850,0.806040
9.6875,0.795353
9.6900,0.738679
9.6925,0.707537
9.6950,0.656282
9.6975,0.593840
9.7000,0.537166
9.7025,0.479852
9.7050,0.454340
9.7075,0.396286
9.7100,0.333553
9.7125,0.308176
9.7150,0.278754
9.7175,0.203543
9.7200,0.195304
9.7225,0.159326
9.7250,0.146427
9.7275,0.087214
9.7300,0.104138
9.7325,0.065202
9.7350,0.067667
9.7375,0.066980
9.7400,0.084531
9.7425,0.095592
9.7450,0.086996
9.7475,0.114909
9.7500,0.134641
9.7525,0.177490
9.7550,0.197100
9.7575,0.195511
9.7600,0.225246
9.7625,0.237957
9.7650,0.269175
9.7675,0.287147
9.7700,0.292225
9.7725,0.275885
9.7750,0.306999
9.7775,0.297791
9.7800,0.286411
9.7825,0.282584
9.7850,0.265437
9.7875,0.260370
9.7900,0.272306
9.7925,0.269181
9.7950,0.256601
9.7975,0.213471
9.8000,0.221133
9.8025,0.182876
9.8050,0.199498
9.8075,0.155316
9.8100,0.156959
9.8125,0.141416
9.8150,0.133672
9.8175,0.103314
9.8200,0.081187
9.8225,0.104996
9.8250,0.070805
9.8275,0.068592
9.8300,0.040465
9.8325,0.046459
9.8350,0.040750
9.8375,0.017344
9.8400,0.044989
9.8425,0.021599
9.8450,0.008524
9.8475,0.030155
9.8500,0.002923
9.8525,0.000000
9.8550,0.000000
9.8575,0.008951
9.8600,0.015423
9.8625,0.015016
9.8650,0.011440
9.8675,0.021221
9.8700,0.000000
9.8725,0.015506
9.8750,0.016180
9.8775,0.000000
9.8800,0.007925
9.8825,0.016325
9.8850,0.008365
9.8875,0.000000
9.8900,0.000000
9.8925,0.013494
9.8950,0.000000
9.8975,0.000000
9.9000,0.007897
9.9025,0.000000
9.9050,0.009107
9.9075,0.010596
9.9100,0.000000
9.9125,0.000000
9.9150,0.017672
9.9175,0.000000
9.9200,0.000000
9.9225,0.000000
9.9250,0.000000
9.9275,0.000000
9.9300,0.002416
9.9325,0.019120
9.9350,0.018317
9.9375,0.000000
9.9400,0.000000
9.9425,0.000000
9.9450,0.011778
9.9475,0.007219
9.9500,0.000000
9.9525,0.000880
9.9550,0.014556
9.9575,0.002617
9.9600,0.000000
9.9625,0.000000
9.9650,0.017803
9.9675,0.012790
9.9700,0.013081
9.9725,0.000000
9.9750,0.000000
9.9775,0.000000
9.9800,0.000000
9.9825,0.000000
9.9850,0.000000
9.9875,0.009749
9.9900,0.007628
9.9925,0.017288
9.9950,0.007241
9.9975,0.000000
